pulseWaveform1,pulseRate1,time1,pulseWaveform2,pulseRate2,time2
163,85,0.08195,165,79,0.00934
162,85,0.091718,164,79,0.026053
160,85,0.112519,162,79,0.042723
158,85,0.129196,161,79,0.059597
156,85,0.146152,159,79,0.076049
155,85,0.162519,158,79,0.092689
153,85,0.179176,156,79,0.109576
152,85,0.196208,155,79,0.126072
151,85,0.212551,154,79,0.142741
150,85,0.22917,153,79,0.15957
149,85,0.246262,152,79,0.176051
149,85,0.26251,152,79,0.192693
149,85,0.279164,151,79,0.209772
148,85,0.296495,151,79,0.22602
148,85,0.312484,150,79,0.242733
148,85,0.329209,150,79,0.259694
149,85,0.346419,150,79,0.276016
151,85,0.362499,151,79,0.292711
155,85,0.379206,153,79,0.309695
163,85,0.396173,158,79,0.326007
173,85,0.412489,166,79,0.342659
186,85,0.429155,175,79,0.359519
199,85,0.446151,185,79,0.376061
213,85,0.462508,196,79,0.392723
224,85,0.479174,204,79,0.409968
231,85,0.496542,209,79,0.426022
235,85,0.512489,211,79,0.442709
235,85,0.52917,210,79,0.459655
233,85,0.546286,207,79,0.476031
230,85,0.562499,203,78,0.492737
226,85,0.579179,196,78,0.509487
194,85,0.596192,190,78,0.526053
192,85,0.612517,183,78,0.5427
190,85,0.629186,178,78,0.560202
188,85,0.646256,172,78,0.576023
187,85,0.6625,168,78,0.592692
185,85,0.679166,166,78,0.609644
184,85,0.696434,165,78,0.626041
183,85,0.712506,165,78,0.642678
182,85,0.729171,165,78,0.659655
181,85,0.746151,167,78,0.676047
180,85,0.762529,168,78,0.692698
179,85,0.77914,168,78,0.70945
178,85,0.796322,169,78,0.726041
176,85,0.812489,169,78,0.742697
175,85,0.829189,169,78,0.759658
173,85,0.846186,168,78,0.776034
171,85,0.862587,167,78,0.792702
170,85,0.879174,165,78,0.809494
168,85,0.896399,163,78,0.826008
168,85,0.912512,161,78,0.842687
167,85,0.929156,160,78,0.85951
166,85,0.946232,159,78,0.87602
165,85,0.962507,157,78,0.892679
164,85,0.979156,157,78,0.909545
163,85,0.996383,156,78,0.926017
162,85,1.012503,156,78,0.942694
162,85,1.029183,155,78,0.959778
161,85,1.046161,154,78,0.97599
160,85,1.062519,154,78,0.99266
160,85,1.079194,153,78,1.0096
159,85,1.09616,153,78,1.026044
159,85,1.112489,152,78,1.042651
160,85,1.129196,153,78,1.060416
161,85,1.146338,156,78,1.076034
165,85,1.162498,161,78,1.092709
170,85,1.179174,168,78,1.109443
176,85,1.196302,178,78,1.126009
183,85,1.212493,189,78,1.142737
190,85,1.229164,199,78,1.159649
195,85,1.246205,208,78,1.176019
199,85,1.262486,214,78,1.192672
201,85,1.279161,216,78,1.209587
201,85,1.296249,215,78,1.226045
200,85,1.312502,212,78,1.242661
199,85,1.329151,208,78,1.25989
197,85,1.346191,202,78,1.276008
195,85,1.362532,195,78,1.292702
193,85,1.37922,189,78,1.30948
192,85,1.39637,182,78,1.326015
190,85,1.412494,176,78,1.342691
189,85,1.429194,172,78,1.359718
188,85,1.446512,169,78,1.376028
188,85,1.462487,168,78,1.392732
187,85,1.479202,168,78,1.409514
186,85,1.496603,168,78,1.426023
185,85,1.512489,168,78,1.442692
183,85,1.529172,169,78,1.459752
182,85,1.546205,170,78,1.47599
180,85,1.562498,171,78,1.492723
178,85,1.579168,170,78,1.509572
176,85,1.59628,170,78,1.525999
174,85,1.612495,169,78,1.54268
172,85,1.629154,168,78,1.559549
170,85,1.64614,168,78,1.576006
169,85,1.662492,165,78,1.592659
168,85,1.679151,164,78,1.60959
167,85,1.696232,162,78,1.626018
166,85,1.712475,160,78,1.642659
165,85,1.729161,158,78,1.659631
165,85,1.746123,156,78,1.676005
164,85,1.762492,156,78,1.692657
163,85,1.77917,155,78,1.709431
162,85,1.796307,154,78,1.726001
161,85,1.812472,154,78,1.742714
161,85,1.829184,154,78,1.759531
160,85,1.84633,153,78,1.776023
159,85,1.862504,152,78,1.792688
159,85,1.879168,152,78,1.809861
159,85,1.896381,151,78,1.826022
161,85,1.912493,153,78,1.842678
164,85,1.929156,155,78,1.859627
169,85,1.946201,161,78,1.876005
176,85,1.962492,169,78,1.892713
184,85,1.979143,179,78,1.909537
192,85,1.996195,190,78,1.926019
198,85,2.012485,200,78,1.942653
202,85,2.029144,209,78,1.959783
204,85,2.046079,214,78,1.976045
205,85,2.062507,216,78,1.99267
204,85,2.079158,215,78,2.009584
202,85,2.0966,211,78,2.02597
199,84,2.112515,206,78,2.042726
197,84,2.1292,200,78,2.059707
194,84,2.146203,193,78,2.076
191,84,2.1625,187,78,2.092678
189,84,2.179224,180,78,2.109555
187,84,2.196272,175,78,2.126008
185,84,2.2125,171,78,2.142701
184,84,2.229206,169,78,2.159603
183,84,2.246314,168,78,2.176005
182,84,2.262487,168,78,2.192667
181,84,2.279156,169,78,2.209569
179,84,2.295963,170,78,2.226007
177,84,2.312497,171,78,2.242674
175,84,2.329168,172,78,2.259743
173,84,2.346044,173,78,2.276025
171,84,2.362555,172,78,2.292661
168,84,2.379203,171,78,2.309598
167,84,2.396281,171,78,2.326
165,84,2.412475,169,78,2.342658
162,84,2.429173,168,78,2.359575
160,84,2.44609,167,78,2.376025
158,84,2.462474,166,78,2.39265
157,84,2.479155,164,78,2.409937
155,84,2.496517,163,78,2.426139
154,84,2.512473,162,78,2.442716
153,84,2.529143,161,78,2.45966
152,84,2.546122,160,78,2.476001
151,84,2.562461,160,78,2.492684
150,84,2.579121,159,78,2.509502
149,84,2.59636,159,78,2.526004
149,84,2.612467,159,78,2.542701
148,84,2.629127,158,78,2.559693
148,84,2.646324,157,78,2.576057
147,84,2.662478,157,78,2.592654
148,84,2.679127,158,78,2.609647
150,84,2.696545,161,78,2.626015
153,84,2.712485,167,78,2.642695
157,84,2.729134,173,78,2.659564
163,84,2.746376,182,78,2.675949
168,84,2.762675,193,78,2.692721
173,84,2.779142,202,78,2.709497
177,84,2.796084,210,78,2.725981
179,84,2.812484,214,78,2.742711
180,84,2.829135,216,78,2.759652
180,84,2.846115,215,78,2.775991
178,84,2.862521,211,78,2.79265
176,84,2.879209,206,78,2.809894
174,84,2.896059,200,78,2.825982
172,84,2.912479,193,78,2.842661
169,84,2.92913,187,78,2.859682
168,84,2.946271,181,78,2.875984
167,84,2.962493,176,78,2.89267
166,84,2.979144,173,78,2.909599
165,84,2.99654,170,78,2.925978
165,84,3.01248,169,78,2.942662
164,84,3.029167,170,78,2.959538
163,84,3.046355,170,78,2.975977
163,84,3.062478,171,78,2.992668
162,84,3.079178,173,78,3.009543
161,84,3.096126,174,78,3.02599
160,84,3.112463,174,78,3.042653
160,84,3.129179,174,78,3.059859
159,84,3.146162,174,78,3.076034
158,84,3.162507,172,78,3.092666
157,84,3.179209,171,78,3.109553
156,84,3.19617,170,78,3.126037
155,84,3.212517,168,78,3.142682
155,84,3.229175,168,78,3.15955
154,84,3.246245,166,78,3.175998
154,84,3.262483,165,78,3.192675
153,84,3.279138,164,78,3.209723
153,84,3.29615,163,78,3.225998
153,84,3.312485,162,78,3.242678
153,84,3.329164,161,78,3.259539
153,84,3.346176,161,78,3.275995
152,84,3.362556,160,78,3.292705
152,84,3.379179,159,78,3.309436
152,84,3.396429,159,78,3.325962
152,84,3.412504,158,78,3.342689
152,84,3.429135,158,78,3.359506
153,84,3.446088,158,78,3.375982
154,84,3.462494,160,78,3.392656
157,84,3.479181,165,78,3.410143
162,84,3.496619,171,78,3.426011
167,84,3.512497,180,78,3.442702
172,84,3.529182,190,78,3.459843
178,84,3.546191,201,78,3.475978
183,84,3.5626,209,78,3.492663
187,84,3.579172,215,78,3.509545
189,84,3.595847,218,78,3.525966
190,84,3.612462,218,78,3.542677
189,84,3.629212,215,78,3.559492
187,84,3.645798,210,78,3.575994
185,84,3.66249,203,78,3.592899
183,84,3.679309,196,78,3.609333
181,84,3.695811,190,78,3.626003
179,84,3.712473,184,78,3.642779
177,84,3.729215,178,78,3.659316
175,84,3.745799,174,78,3.676047
174,84,3.76248,171,78,3.692826
173,84,3.779179,170,78,3.709379
172,84,3.795831,169,78,3.726103
171,84,3.812473,169,78,3.742696
170,84,3.829189,170,78,3.759521
169,84,3.845794,171,78,3.775964
168,84,3.862506,171,78,3.79301
168,84,3.879191,171,78,3.809325
166,84,3.895814,171,78,3.825988
165,84,3.912449,170,78,3.842844
164,84,3.92922,170,78,3.859321
163,84,3.945851,168,78,3.875954
162,84,3.962473,167,78,3.893035
162,84,3.979237,165,78,3.909295
161,84,3.99583,164,78,3.925947
160,84,4.01246,162,78,3.942797
160,84,4.029214,160,78,3.959291
159,84,4.045834,158,78,3.975935
159,84,4.062452,157,78,3.992876
158,84,4.07921,156,78,4.009324
158,84,4.095797,155,78,4.025943
158,84,4.112462,154,78,4.042859
157,84,4.129176,153,78,4.059317
157,84,4.145849,153,78,4.075952
157,84,4.162462,152,78,4.092851
157,84,4.179246,151,78,4.109275
157,84,4.195803,150,78,4.125963
157,84,4.212483,149,78,4.142898
157,84,4.229197,150,78,4.159285
159,84,4.245828,151,78,4.175948
163,84,4.262485,155,78,4.192808
168,84,4.279223,162,78,4.209257
174,84,4.29584,171,78,4.225956
182,84,4.31247,181,78,4.242807
189,84,4.329211,192,78,4.25931
195,84,4.345841,202,78,4.275952
199,84,4.362458,209,78,4.292831
201,84,4.379218,212,78,4.309295
202,84,4.395771,212,78,4.325948
201,84,4.412438,211,78,4.343062
199,84,4.429202,206,78,4.359291
197,84,4.44578,201,78,4.375939
195,84,4.46244,194,78,4.392783
192,84,4.479225,187,78,4.409319
190,84,4.495868,181,78,4.425946
188,84,4.512447,175,78,4.442903
186,84,4.529222,170,78,4.459286
185,84,4.545797,168,78,4.475946
184,84,4.562453,166,78,4.492806
183,84,4.579228,165,78,4.509295
182,84,4.5958,164,78,4.525934
181,84,4.612454,165,78,4.542906
180,84,4.62924,166,78,4.559299
178,84,4.645802,167,78,4.575979
177,84,4.662457,167,78,4.592912
175,84,4.67923,168,78,4.609268
173,84,4.6958,167,78,4.625944
172,84,4.712446,166,78,4.642826
170,84,4.729208,165,78,4.659258
168,84,4.745813,163,78,4.675933
168,84,4.762442,161,78,4.692797
167,84,4.779226,159,78,4.709288
165,84,4.795864,157,78,4.725936
164,84,4.81245,155,78,4.742881
163,84,4.829138,153,78,4.759277
162,84,4.845808,152,78,4.775908
161,84,4.862462,150,78,4.792808
161,84,4.879124,149,78,4.809295
160,84,4.895811,149,78,4.825947
159,84,4.912455,149,78,4.842799
159,84,4.929138,149,78,4.859313
158,84,4.94583,148,78,4.875956
158,84,4.962448,148,78,4.892823
157,84,4.979176,148,78,4.90929
156,84,4.995771,147,78,4.925933
156,84,5.012453,146,78,4.942847
155,84,5.029154,145,78,4.959297
155,84,5.045804,145,78,4.97594
157,84,5.062455,146,78,4.992826
160,84,5.079157,150,78,5.009299
166,84,5.09577,156,78,5.025945
172,84,5.112428,164,78,5.042844
179,84,5.129158,174,78,5.0593
187,84,5.145824,186,78,5.07596
193,84,5.16244,197,78,5.093007
198,84,5.179194,207,78,5.109307
200,84,5.19582,213,78,5.125932
201,84,5.212429,215,78,5.142876
200,84,5.229138,214,78,5.159276
199,84,5.245786,211,78,5.175913
197,84,5.262444,206,78,5.193014
194,84,5.279147,199,78,5.209279
191,84,5.29578,192,78,5.225917
189,84,5.312437,185,78,5.242846
187,84,5.329166,178,78,5.259255
185,84,5.345797,172,78,5.275925
184,84,5.362451,168,78,5.292929
183,84,5.379174,165,78,5.309309
182,84,5.395815,164,78,5.32591
181,84,5.412473,164,78,5.34287
180,84,5.429149,164,78,5.359281
179,84,5.445815,165,78,5.375922
177,84,5.462439,166,78,5.393191
176,84,5.479138,167,78,5.409296
174,84,5.495802,167,78,5.425924
172,84,5.512459,167,78,5.443299
170,84,5.529158,166,78,5.459289
168,84,5.545803,165,78,5.475968
167,84,5.562447,164,78,5.49304
165,84,5.579129,162,78,5.509248
164,84,5.59576,160,78,5.525942
162,84,5.61246,158,78,5.542712
161,84,5.629133,156,78,5.559308
160,84,5.645758,154,78,5.575949
158,84,5.662448,153,78,5.592831
158,84,5.679126,151,78,5.60928
157,84,5.695822,151,78,5.625972
156,84,5.712469,150,78,5.642938
155,84,5.729122,150,78,5.659271
155,84,5.745873,149,78,5.675988
154,84,5.762417,149,78,5.692715
154,84,5.77913,150,78,5.709273
153,84,5.795759,150,78,5.725983
152,84,5.812432,149,78,5.742904
152,84,5.829125,149,78,5.75926
151,84,5.845784,148,78,5.775912
151,84,5.862444,148,78,5.793038
150,84,5.879182,147,78,5.809282
151,84,5.895788,147,78,5.825915
152,84,5.912445,148,78,5.842755
155,84,5.929137,152,78,5.859281
160,84,5.945784,158,78,5.875926
166,84,5.962426,167,78,5.892735
172,84,5.979156,177,78,5.909237
179,84,5.995791,188,78,5.925919
185,84,6.012403,199,78,5.94288
189,84,6.029136,207,78,5.959272
191,84,6.045764,212,78,5.975939
191,84,6.062469,213,78,5.992815
190,84,6.079147,212,78,6.009297
189,84,6.095788,208,78,6.025923
186,84,6.112424,203,78,6.04272
184,84,6.129168,197,78,6.059282
182,84,6.145806,190,78,6.075918
179,84,6.16245,183,78,6.092815
177,84,6.179216,177,78,6.109297
176,84,6.1958,172,78,6.125952
175,84,6.212461,168,78,6.142941
173,84,6.229097,166,78,6.159261
172,84,6.24588,165,78,6.175954
171,84,6.262441,165,78,6.192771
171,84,6.279105,167,78,6.209258
170,84,6.295771,168,78,6.225991
169,84,6.312433,168,78,6.242837
168,84,6.329102,169,78,6.259235
167,84,6.345748,170,78,6.275929
166,84,6.362452,169,78,6.292946
165,84,6.379521,169,78,6.309256
164,84,6.395794,168,78,6.325982
163,84,6.412438,168,78,6.342811
161,84,6.429128,166,78,6.359257
160,84,6.445749,165,78,6.375909
159,84,6.462416,163,78,6.392794
157,84,6.479136,162,78,6.409276
156,84,6.495772,160,78,6.425906
155,84,6.512425,158,78,6.44289
154,84,6.529387,157,78,6.459285
153,84,6.545796,156,78,6.475908
153,84,6.562441,155,78,6.492765
152,84,6.579116,155,78,6.509235
152,84,6.595786,155,78,6.52596
151,84,6.612427,154,78,6.542732
151,84,6.629159,154,78,6.55924
150,84,6.64576,153,78,6.575955
150,84,6.66244,153,78,6.592773
149,84,6.679161,152,78,6.609269
149,84,6.695755,151,78,6.625916
149,84,6.712437,151,78,6.642985
150,84,6.72924,152,78,6.659294
152,84,6.745799,154,78,6.675917
155,84,6.762479,159,78,6.692814
159,84,6.779152,167,78,6.709242
165,84,6.795774,175,78,6.725915
169,84,6.812423,186,78,6.742965
174,84,6.829139,196,78,6.75926
179,84,6.845765,205,78,6.775967
181,84,6.862412,210,78,6.793101
182,84,6.879284,213,78,6.809291
182,84,6.895786,212,78,6.8259
181,84,6.912436,209,78,6.843063
179,84,6.929111,204,78,6.859279
177,84,6.945791,197,78,6.875921
175,84,6.962456,190,78,6.892824
173,84,6.979098,183,78,6.909234
171,84,6.995738,176,78,6.925889
169,84,7.012467,171,78,6.942748
168,84,7.029143,167,78,6.959211
168,84,7.045745,164,78,6.975949
167,84,7.062443,163,78,6.992925
167,84,7.079124,163,78,7.00923
166,84,7.095747,164,78,7.025919
166,84,7.112431,165,78,7.042763
165,84,7.129138,167,78,7.05925
164,84,7.145782,168,78,7.075892
163,84,7.162408,169,78,7.092945
162,84,7.179352,169,78,7.109239
161,84,7.195759,169,78,7.125958
160,84,7.212409,168,78,7.142735
159,84,7.229155,168,78,7.159239
158,84,7.245756,166,78,7.175944
157,84,7.262468,164,78,7.192839
156,84,7.279163,162,78,7.209224
155,84,7.295765,161,78,7.225904
155,84,7.312423,160,78,7.242812
155,84,7.32914,158,78,7.259247
154,84,7.34574,157,78,7.275898
154,84,7.362459,156,78,7.293061
154,84,7.379262,155,78,7.309247
154,84,7.395786,155,78,7.325891
154,84,7.412402,154,78,7.342825
154,84,7.429202,153,78,7.359264
153,84,7.445776,153,78,7.375935
153,84,7.462406,152,78,7.392829
153,84,7.47915,152,78,7.409262
153,84,7.495778,151,78,7.425946
154,84,7.512417,151,78,7.443408
154,84,7.529348,152,78,7.459231
156,84,7.545791,154,78,7.475908
160,84,7.562466,159,78,7.492816
165,84,7.579142,166,78,7.509225
170,84,7.595764,175,78,7.525925
177,84,7.612428,186,78,7.542856
183,84,7.629162,196,78,7.559231
188,84,7.645756,205,78,7.575879
191,84,7.662408,211,78,7.592965
193,84,7.679111,214,78,7.609208
192,84,7.695724,213,78,7.625907
191,84,7.712425,211,78,7.642901
189,84,7.72912,206,77,7.659261
187,84,7.745749,200,77,7.675883
185,84,7.762393,193,77,7.692989
182,84,7.779136,186,77,7.709232
180,84,7.795725,180,77,7.725897
179,84,7.812388,173,77,7.742898
177,84,7.829111,169,77,7.759238
177,84,7.845732,166,77,7.775862
176,84,7.862399,163,77,7.794684
175,84,7.879154,162,77,7.80926
174,84,7.895771,163,77,7.82589
173,84,7.912403,164,77,7.842769
172,84,7.929138,165,77,7.859221
171,84,7.945758,166,77,7.875943
170,84,7.962438,167,77,7.892966
169,84,7.979124,168,77,7.909221
168,84,7.995743,168,77,7.925946
167,84,8.012385,167,77,7.942892
166,84,8.029153,166,77,7.959232
165,84,8.045777,164,77,7.975956
163,84,8.062379,162,77,7.993015
162,84,8.079164,160,77,8.009251
161,84,8.095738,158,77,8.025899
160,84,8.112412,156,77,8.042896
159,84,8.129144,154,77,8.059291
158,84,8.145775,153,77,8.075924
158,84,8.162408,152,77,8.092637
157,84,8.179432,152,77,8.109252
157,84,8.195764,151,77,8.125954
156,84,8.212448,150,77,8.142836
156,84,8.229149,150,77,8.159216
155,84,8.245778,150,77,8.175859
155,84,8.262411,149,77,8.192897
154,84,8.279127,149,77,8.209214
154,84,8.295752,148,77,8.225908
154,84,8.312432,148,77,8.242904
154,84,8.329153,147,77,8.259207
155,84,8.34574,148,77,8.275877
157,84,8.362406,152,77,8.293145
162,84,8.379591,158,77,8.309231
168,84,8.395748,166,77,8.325874
173,84,8.412422,176,77,8.342899
180,84,8.429143,189,77,8.359222
186,84,8.445746,200,77,8.375933
190,84,8.462392,209,77,8.392861
192,84,8.479149,214,77,8.409241
192,84,8.495747,216,77,8.425897
192,84,8.512403,215,77,8.442722
190,84,8.529534,212,77,8.459244
188,84,8.545728,206,77,8.475933
186,84,8.562407,200,77,8.4929
184,84,8.579102,192,77,8.509268
182,84,8.595757,185,77,8.525897
180,84,8.612383,179,77,8.542997
179,84,8.629129,173,77,8.559248
178,84,8.645728,168,77,8.575892
177,84,8.662388,166,77,8.592805
176,84,8.679211,164,77,8.609248
175,84,8.695744,164,77,8.625876
174,84,8.712396,164,77,8.642829
174,84,8.729105,165,77,8.659226
173,84,8.745733,167,77,8.675877
172,84,8.762407,168,77,8.692881
171,84,8.779155,168,77,8.709218
169,84,8.795728,168,77,8.725899
168,84,8.812392,168,77,8.743092
167,84,8.829203,167,77,8.759212
165,84,8.845746,166,77,8.775936
164,84,8.862445,164,77,8.792883
162,84,8.879212,162,77,8.809251
161,84,8.89578,160,77,8.825871
160,84,8.912441,158,77,8.842866
159,84,8.929289,157,77,8.85923
158,84,8.94576,155,77,8.875877
157,84,8.962401,154,77,8.892834
157,84,8.979261,153,77,8.90919
156,84,8.995736,152,77,8.925901
156,84,9.012443,152,77,8.94297
156,84,9.029121,151,77,8.959193
155,84,9.045716,151,77,8.975857
155,84,9.062373,151,77,8.992657
154,84,9.079455,150,77,9.009232
154,84,9.095753,149,77,9.025876
154,84,9.112401,149,77,9.042928
155,84,9.129102,149,77,9.059281
156,84,9.145854,149,77,9.075859
159,84,9.16239,152,77,9.092932
164,84,9.179444,158,77,9.109249
169,84,9.195732,167,77,9.125865
176,84,9.212383,177,77,9.142889
182,84,9.22933,189,77,9.159228
187,84,9.245717,200,77,9.17587
191,84,9.262379,209,77,9.192798
193,84,9.279345,215,77,9.209233
193,84,9.295744,217,77,9.225866
192,84,9.312399,216,77,9.243194
190,84,9.329174,213,77,9.259227
188,84,9.345721,207,77,9.275912
186,84,9.362383,201,77,9.293436
184,84,9.379392,193,77,9.309194
182,84,9.395785,186,77,9.325893
180,84,9.412397,180,77,9.342829
179,84,9.42941,174,77,9.359192
178,84,9.445732,169,77,9.375851
178,84,9.462397,167,77,9.392853
177,84,9.479471,165,77,9.409232
176,84,9.495758,165,77,9.425894
175,84,9.512406,166,77,9.442934
174,84,9.529466,167,77,9.459187
173,84,9.545747,168,77,9.475855
172,84,9.562383,169,77,9.492881
171,84,9.579535,169,77,9.509191
169,84,9.595735,169,77,9.525899
168,84,9.612416,169,77,9.543051
168,84,9.629391,168,77,9.559193
166,84,9.645734,167,77,9.575843
165,84,9.662385,165,77,9.593007
164,84,9.679073,163,77,9.609202
163,84,9.695703,162,77,9.625858
163,84,9.712446,160,77,9.64307
162,84,9.729095,159,77,9.659207
162,84,9.745729,157,77,9.675867
161,84,9.76241,156,77,9.692991
161,84,9.779338,155,77,9.709203
160,84,9.795735,154,77,9.725897
160,84,9.8124,154,77,9.742836
159,84,9.829442,154,77,9.759202
159,84,9.845727,153,77,9.77587
158,84,9.862391,153,77,9.793268
157,84,9.879439,153,77,9.80924
156,84,9.895737,153,77,9.825906
156,84,9.912379,152,77,9.843024
157,84,9.929708,152,77,9.859203
159,84,9.94575,154,77,9.875896
162,84,9.962381,159,77,9.89275
168,84,9.9798,166,77,9.909173
172,84,9.995732,174,77,9.925878
178,84,10.012402,185,77,9.943012
184,84,10.029272,196,77,9.959215
188,84,10.045732,206,77,9.975868
189,84,10.062369,212,77,9.992739
190,84,10.079526,216,77,10.009183
189,84,10.09575,216,77,10.025834
187,83,10.112389,214,77,10.042963
185,83,10.129134,210,77,10.059214
182,83,10.145744,203,77,10.075829
179,83,10.162405,197,77,10.092871
177,83,10.179334,190,77,10.109164
174,83,10.195757,184,77,10.125854
172,83,10.212389,178,77,10.142779
171,83,10.229433,173,77,10.159201
170,83,10.245721,170,77,10.175858
170,83,10.262404,168,77,10.192868
169,83,10.27931,168,77,10.209185
169,83,10.295699,168,77,10.225855
168,83,10.312374,169,77,10.242828
168,83,10.329352,170,77,10.259242
167,83,10.345706,172,77,10.275832
166,83,10.36242,173,77,10.292916
165,83,10.379402,173,77,10.309243
163,83,10.395761,173,77,10.325864
162,83,10.412381,172,77,10.342911
161,83,10.429324,171,77,10.359252
160,83,10.445719,169,77,10.375903
159,83,10.462398,168,77,10.392859
158,83,10.47926,168,77,10.409213
158,83,10.495701,166,77,10.425885
157,83,10.512396,165,77,10.442769
157,83,10.529403,164,77,10.459201
157,83,10.545697,163,77,10.475897
156,83,10.562362,162,77,10.492738
156,83,10.579298,161,77,10.509172
156,83,10.595709,160,77,10.525834
155,83,10.612364,159,77,10.54316
155,83,10.629301,158,77,10.559207
154,83,10.645725,157,77,10.575856
154,83,10.662366,157,77,10.592721
154,83,10.67935,157,77,10.609161
155,83,10.69571,158,77,10.62585
158,83,10.71237,161,77,10.642921
162,83,10.729399,167,77,10.659247
167,83,10.74571,174,77,10.675886
172,83,10.762388,184,77,10.692943
178,83,10.779483,195,77,10.709176
183,83,10.795723,205,77,10.725884
187,83,10.812426,214,77,10.742793
188,83,10.829339,219,77,10.759223
188,83,10.845699,221,77,10.775872
187,83,10.862373,219,77,10.793199
186,82,10.879263,215,77,10.809174
184,82,10.895718,210,77,10.825935
182,82,10.912427,203,77,10.842788
180,82,10.929318,196,77,10.859224
178,82,10.945701,189,77,10.875849
177,82,10.962373,183,77,10.892788
176,82,10.979297,177,77,10.909182
175,82,10.995729,172,77,10.925826
174,82,11.012382,170,77,10.942844
173,82,11.029341,168,77,10.959242
173,82,11.045676,168,77,10.975853
172,82,11.062382,168,77,10.992691
171,82,11.079317,168,77,11.00916
170,82,11.095727,169,77,11.025883
169,82,11.112357,170,77,11.043108
168,82,11.129396,170,77,11.059202
167,82,11.145692,169,77,11.075834
166,82,11.162342,168,77,11.092975
164,82,11.179226,168,77,11.109172
162,82,11.195709,166,77,11.125881
161,82,11.212351,164,77,11.14279
160,82,11.229328,162,77,11.159217
159,82,11.245695,161,77,11.175887
158,82,11.262375,159,77,11.192845
157,82,11.279548,157,77,11.209166
157,82,11.295718,155,77,11.225857
156,82,11.312353,154,77,11.242632
156,82,11.329263,152,77,11.259226
156,82,11.345693,151,77,11.275879
156,82,11.362358,150,77,11.292888
156,82,11.379275,149,77,11.309167
156,82,11.395726,149,77,11.32588
157,82,11.412386,148,77,11.342824
159,82,11.429259,149,77,11.359212
162,82,11.445705,150,77,11.375824
167,82,11.462396,153,77,11.392857
172,82,11.479309,159,77,11.409193
179,82,11.495696,168,77,11.425878
185,82,11.512385,177,77,11.442829
191,82,11.529538,188,77,11.459188
195,82,11.545709,198,77,11.475834
197,82,11.562374,206,77,11.492875
197,82,11.579474,210,77,11.509168
196,82,11.595658,212,77,11.525866
195,82,11.612362,210,77,11.542829
193,82,11.629251,206,77,11.559241
191,82,11.645677,201,77,11.575835
189,82,11.662363,194,77,11.592911
187,82,11.679352,187,77,11.60918
185,82,11.695726,181,77,11.625839
184,82,11.712371,175,77,11.642809
182,82,11.729378,170,77,11.659253
182,82,11.745684,166,77,11.675875
181,82,11.762362,164,77,11.692796
181,82,11.779274,162,77,11.709149
180,82,11.795716,162,77,11.725825
180,82,11.81238,162,77,11.742909
179,82,11.829373,163,77,11.759254
177,82,11.845681,165,77,11.775837
176,82,11.862399,165,77,11.792895
174,82,11.879334,166,77,11.809218
173,82,11.89575,166,77,11.825834
171,82,11.912387,165,77,11.842665
170,82,11.929268,164,77,11.85932
169,82,11.94569,162,77,11.87581
168,82,11.962383,160,77,11.892879
168,82,11.979454,159,77,11.909174
167,82,11.995685,157,77,11.925814
166,82,12.012426,155,77,11.942856
166,82,12.029343,154,77,11.959263
165,82,12.045675,153,77,11.97582
165,82,12.062382,153,77,11.992801
164,82,12.07936,151,77,12.009177
164,82,12.095695,150,77,12.025808
163,82,12.11238,150,77,12.042886
163,82,12.129585,149,77,12.059179
162,82,12.145717,148,77,12.075807
162,82,12.16236,147,77,12.093194
163,82,12.179228,147,77,12.109189
166,82,12.19574,148,77,12.12595
169,82,12.212401,152,77,12.142832
174,82,12.229337,158,77,12.159205
180,82,12.245694,166,77,12.175821
186,82,12.262392,176,77,12.192947
190,82,12.279273,187,77,12.20918
193,82,12.295674,198,77,12.2258
195,82,12.312374,207,77,12.242796
195,82,12.329204,212,77,12.259244
194,82,12.345662,213,77,12.275841
193,82,12.362384,212,77,12.292803
191,81,12.379384,209,77,12.309142
188,81,12.395718,203,77,12.325822
186,81,12.412387,197,77,12.342875
184,81,12.429284,191,77,12.359174
182,81,12.445694,184,77,12.375842
180,81,12.462414,178,77,12.392789
178,81,12.479453,173,77,12.409193
178,81,12.495702,169,77,12.425842
177,81,12.512411,167,77,12.442755
176,81,12.529382,166,77,12.459183
175,81,12.545698,166,77,12.475796
175,81,12.562385,167,77,12.492786
174,81,12.579292,168,77,12.509148
173,81,12.595661,168,77,12.525817
171,81,12.612402,168,77,12.542926
170,81,12.629204,169,77,12.559177
169,81,12.645705,169,77,12.575813
168,81,12.66239,168,77,12.592715
167,81,12.679304,167,77,12.609152
165,81,12.695693,165,77,12.625791
164,81,12.712386,163,77,12.642956
163,81,12.72937,161,77,12.659174
162,81,12.745685,159,77,12.675823
161,81,12.762404,157,77,12.692871
161,81,12.779425,156,77,12.709139
160,81,12.795693,154,77,12.725806
160,81,12.812362,153,77,12.742811
159,81,12.829239,152,77,12.759176
159,81,12.845674,151,77,12.775917
159,81,12.862428,151,77,12.792825
158,81,12.879215,150,77,12.809177
157,81,12.895707,149,77,12.825827
157,81,12.912415,149,77,12.842871
157,81,12.929395,148,77,12.859209
157,81,12.945664,148,77,12.875819
160,81,12.962397,149,77,12.892817
163,81,12.979293,151,77,12.909178
168,81,12.995654,156,77,12.925819
173,81,13.012404,164,77,12.942636
179,81,13.029216,173,77,12.959158
184,81,13.045688,184,77,12.975821
188,81,13.062416,195,77,12.992807
190,81,13.079217,205,77,13.009143
191,81,13.095665,211,77,13.025837
190,81,13.11239,214,77,13.042883
189,81,13.129392,213,77,13.059147
188,81,13.145711,210,77,13.075774
186,80,13.162403,206,77,13.093122
183,80,13.179302,199,77,13.109158
181,80,13.195713,192,77,13.126057
179,80,13.212413,185,77,13.142827
177,80,13.229223,179,77,13.159185
176,80,13.245659,173,77,13.175791
175,80,13.262401,168,77,13.192676
174,80,13.279382,166,77,13.209165
173,80,13.295665,165,77,13.22581
173,80,13.312409,164,77,13.242966
172,80,13.329272,165,77,13.259141
171,80,13.345664,166,77,13.275826
170,80,13.36233,167,77,13.292934
169,80,13.379395,168,77,13.309151
168,80,13.395679,168,77,13.325824
167,80,13.412334,168,77,13.342773
166,80,13.429243,168,77,13.359185
164,80,13.445664,167,77,13.375831
163,80,13.462319,165,77,13.392738
162,80,13.479351,163,77,13.40918
161,80,13.495701,162,77,13.425799
160,80,13.512322,160,77,13.442663
159,80,13.529239,158,77,13.459178
159,80,13.545695,157,77,13.475841
158,80,13.562313,156,77,13.493068
158,80,13.579346,155,77,13.509139
158,80,13.595651,154,77,13.525798
157,80,13.612336,154,77,13.542787
157,80,13.629359,153,77,13.559146
156,80,13.645666,153,77,13.575825
156,80,13.662314,153,77,13.592872
155,80,13.679274,152,77,13.609159
155,80,13.695662,151,77,13.625755
154,80,13.712337,151,77,13.642923
154,80,13.729291,151,77,13.659175
155,80,13.745648,151,77,13.67578
157,80,13.762339,152,77,13.693126
160,80,13.779361,154,77,13.709118
165,80,13.795685,160,77,13.725823
169,80,13.812324,168,77,13.742849
175,80,13.830101,176,77,13.759137
179,80,13.845673,187,77,13.775789
182,80,13.862324,197,77,13.792797
184,80,13.879188,205,77,13.809211
184,80,13.895677,209,77,13.825912
183,80,13.912343,211,77,13.843047
181,80,13.929154,210,77,13.859181
179,80,13.945676,206,77,13.875819
177,80,13.962314,201,77,13.893092
175,80,13.9792,194,77,13.909169
173,80,13.995671,187,77,13.925827
171,80,14.0123,180,77,13.943113
170,80,14.02922,174,77,13.959154
170,80,14.045679,169,77,13.975824
169,80,14.062303,166,77,13.992788
169,80,14.079273,165,77,14.009156
169,80,14.095655,164,77,14.025803
168,80,14.112351,164,77,14.042968
168,80,14.129274,165,77,14.059146
167,80,14.145685,166,77,14.075801
166,80,14.16231,167,77,14.09316
165,80,14.179254,167,77,14.109126
164,80,14.195687,168,77,14.126096
162,80,14.21232,168,77,14.142801
161,80,14.229345,168,77,14.159105
160,80,14.245687,167,77,14.175786
158,80,14.262311,166,77,14.19291
157,80,14.279301,164,77,14.209095
157,80,14.295635,163,77,14.225781
156,80,14.312339,161,77,14.242827
155,80,14.329203,160,77,14.259137
155,80,14.345655,159,77,14.275791
154,80,14.362335,158,77,14.292887
154,80,14.379177,157,77,14.309134
154,80,14.3957,156,77,14.325889
153,80,14.412329,156,77,14.342937
153,80,14.429336,155,77,14.359141
153,80,14.445671,154,77,14.375825
152,80,14.462344,154,77,14.393001
152,80,14.479355,153,77,14.409153
151,80,14.495677,153,77,14.425788
151,80,14.512333,152,77,14.442946
151,80,14.529538,152,77,14.459149
153,80,14.545663,153,77,14.475802
156,80,14.562307,155,77,14.492901
161,80,14.579244,160,77,14.509117
166,80,14.59568,167,77,14.525799
171,80,14.61232,175,77,14.542851
176,80,14.629314,186,77,14.559127
180,80,14.645684,196,77,14.575854
182,80,14.662315,204,77,14.59292
183,80,14.679163,209,77,14.609125
182,80,14.695665,211,77,14.625785
181,80,14.712298,210,77,14.642815
180,79,14.729232,206,77,14.659092
178,79,14.745671,201,77,14.675854
176,79,14.762293,194,77,14.693037
174,79,14.779187,187,77,14.709103
172,79,14.795651,181,77,14.72582
171,79,14.812358,174,77,14.742849
170,79,14.829447,168,77,14.759087
169,79,14.845654,165,77,14.775798
168,79,14.862303,162,77,14.793001
168,79,14.879374,161,77,14.809134
168,79,14.895708,161,77,14.825809
168,79,14.912324,162,77,14.84295
167,79,14.929124,163,77,14.85911
166,79,14.945644,164,77,14.875805
165,79,14.962306,165,77,14.892704
164,79,14.979373,165,77,14.909139
162,79,14.995629,164,77,14.925853
161,79,15.012303,163,77,14.943008
160,79,15.029303,162,77,14.959111
159,79,15.045628,160,77,14.975801
159,79,15.062298,158,77,14.992806
158,79,15.079268,156,77,15.009095
157,79,15.095647,155,77,15.025809
157,79,15.112328,153,77,15.042919
156,79,15.129221,152,77,15.059137
156,79,15.145663,150,77,15.075797
156,79,15.162299,150,77,15.092856
155,79,15.179415,149,77,15.109132
155,79,15.195654,148,77,15.125807
155,79,15.212313,148,77,15.142898
155,79,15.22929,148,77,15.159131
155,79,15.245643,147,77,15.175833
155,79,15.262318,147,77,15.192617
155,79,15.279196,146,77,15.209108
154,79,15.295643,145,77,15.225812
154,79,15.312285,145,77,15.24286
155,79,15.329304,144,77,15.259127
157,79,15.345636,145,77,15.27582
161,79,15.362303,148,77,15.292856
166,79,15.379047,154,77,15.309105
171,79,15.395664,162,77,15.325823
176,79,15.412317,171,77,15.342667
181,79,15.429307,182,77,15.359091
184,79,15.445674,193,77,15.375828
185,79,15.462289,201,77,15.392726
185,79,15.479329,206,77,15.409108
185,79,15.49566,207,77,15.425822
184,79,15.512286,206,77,15.443023
182,79,15.529326,202,77,15.459128
180,79,15.545641,197,77,15.475859
178,79,15.562321,191,77,15.492896
176,79,15.57926,184,77,15.509128
174,79,15.595627,177,77,15.525875
172,79,15.612287,171,77,15.542633
171,79,15.62934,166,77,15.559126
170,79,15.645631,161,77,15.575832
170,79,15.662284,159,77,15.592542
170,79,15.679271,157,77,15.609117
169,79,15.695612,157,77,15.625887
169,79,15.71229,158,77,15.642637
168,79,15.729305,158,77,15.659117
168,79,15.745663,160,77,15.675747
168,79,15.7623,161,77,15.692572
167,79,15.779372,161,77,15.709108
166,79,15.795614,162,77,15.725771
165,79,15.812292,161,77,15.742751
164,79,15.829449,160,77,15.759316
163,79,15.845645,159,77,15.775733
162,79,15.862295,157,77,15.792661
162,79,15.879312,155,77,15.809093
161,79,15.895678,153,77,15.825772
160,79,15.912355,152,77,15.843487
159,79,15.929376,150,77,15.859082
159,79,15.945626,149,77,15.875758
158,79,15.962311,147,77,15.892579
158,79,15.979552,146,77,15.909064
158,79,15.995625,145,77,15.925958
157,79,16.012703,145,77,15.942407
157,79,16.028957,144,77,15.959103
156,79,16.045627,144,77,15.975883
156,79,16.062608,144,77,15.992441
155,79,16.078966,143,77,16.009083
155,79,16.095628,143,77,16.025852
154,79,16.11267,142,77,16.042431
154,79,16.128944,142,77,16.059122
155,79,16.145633,142,77,16.076036
158,79,16.162536,144,77,16.092413
162,79,16.17898,148,77,16.1091
168,79,16.195614,155,77,16.12621
173,79,16.214076,164,77,16.142431
178,79,16.228962,174,77,16.159105
183,79,16.245626,185,77,16.175958
185,79,16.262725,196,77,16.192407
186,79,16.278944,203,77,16.209053
186,79,16.295619,207,77,16.22608
185,79,16.312653,208,77,16.242435
183,78,16.33344,205,77,16.259194
181,78,16.345623,201,77,16.276167
179,78,16.362825,195,77,16.292444
177,78,16.378986,188,77,16.309124
175,78,16.395674,181,77,16.325997
173,78,16.412751,175,77,16.342436
172,78,16.429026,168,77,16.359097
171,78,16.445619,164,77,16.376054
170,78,16.462761,160,77,16.392414
169,78,16.478959,158,77,16.409106
169,78,16.495618,157,77,16.426255
168,78,16.512798,157,77,16.442402
168,78,16.528961,158,77,16.459111
168,78,16.545615,159,77,16.476051
167,78,16.562647,161,77,16.492407
166,78,16.578945,161,77,16.509107
165,78,16.595606,161,77,16.526044
164,78,16.612724,161,77,16.542424
163,78,16.628992,160,77,16.559051
162,78,16.645609,159,77,16.575957
160,78,16.662597,157,77,16.592457
159,78,16.67896,156,77,16.609106
158,78,16.695614,155,77,16.626057
158,78,16.712713,153,77,16.642405
157,78,16.728945,151,77,16.65911
157,78,16.74564,150,77,16.675906
156,78,16.762713,149,77,16.692395
156,78,16.778951,148,77,16.709096
155,78,16.79564,147,77,16.725974
155,78,16.812697,147,77,16.74243
155,78,16.828937,146,77,16.759084
154,78,16.845615,145,77,16.775987
154,78,16.862636,145,77,16.792427
153,78,16.878939,144,77,16.809108
153,78,16.895644,144,77,16.826106
152,78,16.91298,144,77,16.842414
152,78,16.928953,143,77,16.859071
152,78,16.945594,143,77,16.87608
154,78,16.962602,144,77,16.892433
157,78,16.978942,147,77,16.909075
162,78,16.995597,153,77,16.926018
167,78,17.012494,161,77,16.942395
171,78,17.028966,170,77,16.959056
176,78,17.045623,182,77,16.976062
180,78,17.062655,192,77,16.992398
182,78,17.078995,200,77,17.009117
182,78,17.095606,205,77,17.026219
181,78,17.112711,206,77,17.042412
179,77,17.128946,204,77,17.059072
187,77,17.145646,200,77,17.076009
182,77,17.16255,195,77,17.092411
178,77,17.17899,188,77,17.109058
174,77,17.195629,180,77,17.126073
170,77,17.212703,173,77,17.142399
168,77,17.228956,168,77,17.159053
165,77,17.245634,162,77,17.175909
163,77,17.262532,159,77,17.192387
162,77,17.278948,157,77,17.209097
161,77,17.295602,156,77,17.225918
160,77,17.312655,156,77,17.24238
159,77,17.328989,158,77,17.259084
158,77,17.345617,160,77,17.275937
157,77,17.362732,161,77,17.292437
155,77,17.37893,162,77,17.309056
153,77,17.395593,162,77,17.326048
151,77,17.412842,162,77,17.342446
149,77,17.428966,162,77,17.359115
146,77,17.445599,161,77,17.375971
144,77,17.462716,160,77,17.392394
142,77,17.47893,159,77,17.409069
140,77,17.495624,158,77,17.42611
138,77,17.512782,156,77,17.442407
136,77,17.52895,155,77,17.459074
135,77,17.545587,154,77,17.476138
134,77,17.562612,152,77,17.492412
133,77,17.578923,152,77,17.509047
132,77,17.595598,151,77,17.526043
132,77,17.612637,151,77,17.54239
131,77,17.628924,150,77,17.559108
130,77,17.645615,150,77,17.57583
129,77,17.662581,149,77,17.592411
128,77,17.678946,149,77,17.609042
128,77,17.695584,148,77,17.625891
128,77,17.712715,148,77,17.642405
129,77,17.728923,148,77,17.659036
132,77,17.745589,149,77,17.676077
138,77,17.76276,154,77,17.692408
147,77,17.778938,161,77,17.709034
157,77,17.795593,169,77,17.726015
167,77,17.812771,180,77,17.742379
175,77,17.828952,190,77,17.759072
183,77,17.84559,199,77,17.775903
188,77,17.862713,205,77,17.792403
190,77,17.878928,208,77,17.809029
189,77,17.895607,208,77,17.826338
187,77,17.913013,204,77,17.842411
184,77,17.928944,200,77,17.859105
180,77,17.945594,193,77,17.87587
175,77,17.962679,187,77,17.892385
172,77,17.978934,180,77,17.90905
168,77,17.995599,173,77,17.926104
167,77,18.012764,168,77,17.942405
165,77,18.028933,164,77,17.959026
163,77,18.045586,161,77,17.975897
162,77,18.062772,160,77,17.992404
161,77,18.078907,160,77,18.00904
160,77,18.095595,162,77,18.025976
159,77,18.112869,164,77,18.042395
158,77,18.128905,165,77,18.059037
156,77,18.145601,167,77,18.0761
155,77,18.163127,168,77,18.092394
153,77,18.178963,168,77,18.109095
151,77,18.195582,168,77,18.126067
149,77,18.213404,167,77,18.14241
147,77,18.228918,166,77,18.159036
145,77,18.245573,164,77,18.176058
144,77,18.262731,162,77,18.192389
142,77,18.27896,161,77,18.209046
141,77,18.295573,160,77,18.225881
140,77,18.312691,159,77,18.242357
139,77,18.328917,157,77,18.259037
139,77,18.34563,156,77,18.275936
138,77,18.362679,156,77,18.292404
138,77,18.378922,155,77,18.309055
137,77,18.395564,154,77,18.326064
137,77,18.412679,153,77,18.342387
137,77,18.42894,152,77,18.359031
137,77,18.445615,151,77,18.375924
138,77,18.462663,151,77,18.392389
141,77,18.478913,151,77,18.409046
145,77,18.495574,153,77,18.425846
152,77,18.512635,158,77,18.442384
161,77,18.528924,166,77,18.459036
171,77,18.545585,174,77,18.476156
181,77,18.562826,185,77,18.492412
191,77,18.578938,194,77,18.509025
197,77,18.595608,203,77,18.525865
201,77,18.613511,207,77,18.542365
202,77,18.628933,209,77,18.559021
200,77,18.645607,207,77,18.57625
197,77,18.66245,203,77,18.592372
193,77,18.678901,198,77,18.609059
189,77,18.695598,191,77,18.625925
184,77,18.712815,185,77,18.642388
181,77,18.728898,178,77,18.659081
177,77,18.745583,172,77,18.675864
175,77,18.762722,167,77,18.692395
172,77,18.778914,163,77,18.709025
171,77,18.7956,160,77,18.726052
169,77,18.812661,159,77,18.742378
168,77,18.828906,159,77,18.759066
167,77,18.845576,160,77,18.775823
165,77,18.862667,162,77,18.792404
163,77,18.878907,163,77,18.809008
161,77,18.895589,164,77,18.825996
159,77,18.913309,165,77,18.842383
156,77,18.928937,165,77,18.859201
154,77,18.945567,164,77,18.876013
152,77,18.962624,163,77,18.892407
150,77,18.978962,162,77,18.909115
149,77,18.995623,160,77,18.925942
147,77,19.012735,158,77,18.942323
146,77,19.028933,156,77,18.959011
145,77,19.045599,155,77,18.975853
144,77,19.062666,153,77,18.992373
143,77,19.078925,152,77,19.009006
143,77,19.09557,151,77,19.026088
142,77,19.112625,150,77,19.042377
142,77,19.128896,149,77,19.059008
142,77,19.145589,148,77,19.075822
142,77,19.162532,148,77,19.092411
141,77,19.178935,147,77,19.10904
141,77,19.195587,147,77,19.125847
143,77,19.212581,147,77,19.142378
147,77,19.228925,149,77,19.159024
154,77,19.245576,152,77,19.175831
163,77,19.262638,159,77,19.19237
173,77,19.278896,167,77,19.209062
185,77,19.295588,176,77,19.225893
195,77,19.312384,187,77,19.242356
203,77,19.328883,196,77,19.259005
207,77,19.345618,203,77,19.275918
208,77,19.362618,207,77,19.292341
207,77,19.37889,207,77,19.309028
204,77,19.395571,205,77,19.325871
200,77,19.412832,200,77,19.342394
196,77,19.428907,194,77,19.359031
192,77,19.445623,188,77,19.376069
188,77,19.462785,181,77,19.392333
184,77,19.478905,174,77,19.408993
181,77,19.495559,168,77,19.4259
179,77,19.512812,164,77,19.442341
177,77,19.528898,160,77,19.458982
176,77,19.545581,158,77,19.475996
175,77,19.562632,157,77,19.492336
174,77,19.578885,158,77,19.508985
172,77,19.595558,159,77,19.525997
170,77,19.612598,161,77,19.542344
168,77,19.6289,162,77,19.558983
167,77,19.645563,163,77,19.575989
164,77,19.662728,163,77,19.592335
162,77,19.678889,163,77,19.609009
159,77,19.695562,163,77,19.626179
156,77,19.712589,161,77,19.642375
154,77,19.728885,160,77,19.658992
152,77,19.745569,158,77,19.675919
150,77,19.762458,157,77,19.692352
148,77,19.778907,156,77,19.708999
147,77,19.795556,154,77,19.726056
146,77,19.812835,153,77,19.742348
145,77,19.828916,151,77,19.759054
144,77,19.845573,151,77,19.775824
143,77,19.862669,149,77,19.792364
142,77,19.878911,148,77,19.809013
141,77,19.895571,148,77,19.825856
140,77,19.912861,147,77,19.842402
140,77,19.92893,147,77,19.859002
140,77,19.945594,147,77,19.875909
142,77,19.962504,147,77,19.892339
147,77,19.978878,149,77,19.908998
155,77,19.995568,154,77,19.926083
166,77,20.012417,160,77,19.942355
176,77,20.028889,168,77,19.959009
187,77,20.045591,177,77,19.976164
197,77,20.062554,187,77,19.992338
203,77,20.078901,195,77,20.009045
205,77,20.095578,200,77,20.026009
205,77,20.112513,203,77,20.042368
203,77,20.128894,202,77,20.05901
200,77,20.145566,199,77,20.076276
197,77,20.162674,194,77,20.092341
194,77,20.178929,188,77,20.10902
190,77,20.195636,182,77,20.126037
187,77,20.212573,175,77,20.142328
184,77,20.228906,169,77,20.159003
182,77,20.245572,164,77,20.175882
180,77,20.262445,160,77,20.192361
179,77,20.278886,157,77,20.208983
178,77,20.295585,155,77,20.225828
177,77,20.312598,155,77,20.24234
176,77,20.328892,156,77,20.258979
174,77,20.345585,157,77,20.275874
173,77,20.362512,158,77,20.292337
171,77,20.378891,160,77,20.308993
168,77,20.395576,160,77,20.326303
167,77,20.412681,161,77,20.342371
164,77,20.428936,161,77,20.359028
161,77,20.445622,160,77,20.375923
159,77,20.462772,159,77,20.39235
156,77,20.478945,157,77,20.409078
154,77,20.495599,156,77,20.425919
152,77,20.512553,154,77,20.442372
151,77,20.528913,153,77,20.458977
149,77,20.54558,152,77,20.475877
148,77,20.562663,150,77,20.492305
147,77,20.578868,150,77,20.508995
146,77,20.5956,149,77,20.525873
144,77,20.612512,148,77,20.542339
143,77,20.628873,147,77,20.558977
142,77,20.645575,146,77,20.575903
141,77,20.662565,146,77,20.592322
141,77,20.678868,145,77,20.608965
142,77,20.695596,145,77,20.625948
146,77,20.712617,146,77,20.642338
154,77,20.728871,150,77,20.658986
163,77,20.745587,156,77,20.676043
172,77,20.762556,163,77,20.692326
182,77,20.778875,172,77,20.708966
190,77,20.795591,181,77,20.726092
195,77,20.812711,189,77,20.742339
197,77,20.828874,194,77,20.758978
197,77,20.845612,196,77,20.776034
195,77,20.862452,195,77,20.792335
191,78,20.878869,192,78,20.809
187,78,20.895577,187,78,20.825945
183,78,20.912603,182,78,20.842327
179,78,20.928912,176,78,20.859021
176,78,20.94562,169,78,20.875991
173,78,20.962442,164,78,20.892327
171,78,20.978879,159,78,20.908977
169,78,20.995597,155,78,20.925789
169,78,21.012469,152,78,20.942327
169,78,21.02891,151,78,20.958977
169,78,21.04561,151,78,20.975924
169,78,21.062583,152,78,20.992329
169,78,21.078886,153,78,21.008967
168,78,21.095607,156,78,21.025793
167,78,21.112548,157,78,21.042342
165,78,21.128862,158,78,21.059011
163,78,21.145608,158,78,21.075934
160,78,21.162827,159,78,21.092325
158,78,21.178925,158,78,21.108984
156,78,21.195606,158,78,21.126219
154,78,21.212631,157,78,21.142349
152,78,21.228885,156,78,21.159148
150,78,21.245592,156,78,21.175911
149,78,21.262561,154,78,21.192595
148,78,21.278872,154,78,21.208961
148,78,21.295592,153,78,21.226084
148,78,21.312467,151,78,21.24232
148,78,21.328883,150,78,21.258969
148,78,21.345608,150,78,21.275924
147,78,21.362542,149,78,21.292305
147,78,21.378858,149,78,21.309
147,78,21.395621,148,78,21.325981
148,78,21.412731,149,78,21.342353
151,78,21.428917,149,78,21.359014
156,78,21.44561,152,78,21.376202
164,78,21.463264,156,78,21.392324
172,78,21.478882,162,78,21.409032
181,78,21.495653,169,78,21.425915
189,78,21.512534,178,78,21.442303
195,78,21.528865,187,78,21.458962
199,78,21.545655,194,78,21.476038
199,78,21.562563,199,78,21.492329
198,78,21.578916,200,78,21.509006
195,79,21.595638,199,78,21.526013
191,79,21.612731,197,78,21.542319
187,79,21.628861,192,79,21.558986
183,79,21.645606,187,79,21.575915
180,79,21.662478,181,79,21.592322
176,79,21.678886,176,79,21.608981
174,79,21.695534,170,79,21.625989
173,79,21.712488,167,79,21.642284
172,79,21.728857,164,79,21.65899
172,79,21.745542,162,79,21.675812
171,79,21.762508,162,79,21.692308
171,79,21.778888,162,79,21.708974
169,79,21.795538,163,79,21.725924
168,79,21.812545,165,79,21.742309
167,79,21.828867,166,79,21.758983
165,79,21.845529,168,79,21.775678
163,79,21.862572,168,79,21.792286
161,79,21.878863,168,79,21.808973
159,79,21.895516,169,79,21.825997
157,79,21.912529,168,79,21.842309
155,79,21.928885,168,79,21.858948
153,79,21.945589,168,79,21.876081
151,79,21.962434,167,79,21.892322
149,79,21.978865,166,79,21.909023
148,79,21.995522,164,79,21.925754
146,79,22.013053,164,79,21.942328
145,79,22.028883,162,79,21.959053
144,79,22.04557,162,79,21.975917
143,79,22.062566,161,79,21.992315
141,79,22.078882,160,79,22.008985
140,79,22.095542,159,79,22.025938
140,79,22.112588,158,79,22.042307
140,79,22.128899,158,79,22.059053
142,79,22.145549,158,79,22.076159
147,79,22.162469,160,79,22.092318
154,79,22.178902,163,79,22.108993
164,79,22.195582,168,79,22.125987
173,79,22.2125,174,79,22.142304
182,79,22.228867,182,79,22.159021
190,79,22.245527,190,79,22.175993
196,79,22.262651,197,79,22.192285
198,79,22.278872,201,79,22.208988
198,79,22.295532,202,79,22.226036
196,79,22.312832,201,79,22.242305
193,80,22.328862,198,80,22.258991
190,80,22.3455,193,80,22.276024
186,80,22.362666,187,80,22.292333
182,80,22.378849,181,80,22.308994
179,80,22.395519,175,80,22.325661
177,80,22.41263,170,80,22.342292
175,80,22.428877,166,80,22.359071
174,80,22.445564,163,80,22.375852
173,80,22.462791,161,80,22.392301
173,80,22.478884,160,80,22.409031
172,80,22.495511,161,80,22.425703
172,80,22.512313,162,80,22.442309
171,80,22.52887,163,80,22.458983
170,80,22.545531,164,80,22.475908
168,80,22.562643,165,80,22.492322
168,80,22.578846,165,80,22.50901
166,80,22.595544,165,80,22.526271
164,80,22.6127,165,80,22.542294
162,80,22.628837,164,80,22.559001
160,80,22.645525,163,80,22.575713
159,80,22.662567,162,80,22.59229
158,80,22.678836,160,80,22.608988
156,80,22.695513,159,80,22.626281
155,80,22.712638,157,80,22.642312
153,80,22.728849,156,80,22.659022
152,80,22.745496,155,80,22.675902
151,80,22.762728,154,80,22.692316
150,80,22.778863,153,80,22.709045
149,80,22.795506,153,80,22.725649
148,80,22.812616,152,80,22.742301
147,80,22.828845,152,80,22.75906
147,80,22.845529,151,80,22.775682
148,80,22.862474,152,80,22.792281
153,80,22.878839,152,80,22.809032
160,80,22.895527,156,80,22.826192
168,80,22.912562,161,80,22.842308
178,80,22.928897,168,80,22.859023
187,80,22.945535,176,80,22.875754
195,80,22.962698,184,80,22.892292
200,80,22.978844,191,80,22.909014
202,80,22.99551,195,80,22.926447
202,80,23.012619,197,80,22.942303
200,80,23.028841,197,80,22.959009
197,81,23.04549,194,81,22.975622
194,81,23.062641,189,81,22.99227
191,81,23.078863,184,81,23.009046
187,81,23.09551,178,81,23.025661
184,81,23.112757,172,81,23.042275
182,81,23.128871,168,81,23.059285
180,81,23.145522,163,81,23.075909
179,81,23.162608,160,81,23.092299
178,81,23.178912,157,81,23.109054
178,81,23.195519,156,81,23.125962
177,81,23.212686,155,81,23.142294
176,81,23.228842,156,81,23.159133
176,81,23.245517,157,81,23.175672
174,81,23.26261,158,81,23.192289
173,81,23.278832,159,81,23.208941
171,81,23.295497,160,81,23.225633
169,81,23.312476,160,81,23.242318
167,81,23.328818,160,81,23.258931
165,81,23.345508,159,81,23.275642
163,81,23.362612,159,81,23.292306
161,81,23.378831,158,81,23.308924
160,81,23.395506,156,81,23.325632
158,81,23.412623,154,81,23.342308
157,81,23.428886,153,81,23.358945
155,81,23.445543,152,81,23.375612
155,81,23.462612,151,81,23.392291
154,81,23.478833,150,81,23.408938
153,81,23.495562,150,81,23.425624
152,81,23.512655,150,81,23.442268
152,81,23.528862,149,81,23.45897
151,81,23.545513,149,81,23.475648
150,81,23.562644,149,81,23.492268
149,81,23.578841,148,81,23.508941
149,81,23.595514,148,81,23.525594
151,81,23.612654,148,81,23.542278
156,81,23.628824,149,81,23.558975
163,81,23.645481,152,81,23.575621
172,81,23.662577,158,81,23.592271
182,81,23.678847,166,81,23.608995
193,81,23.695533,174,81,23.625599
201,81,23.712625,183,81,23.642263
207,81,23.728857,191,81,23.659065
209,81,23.745533,197,81,23.675636
209,81,23.762558,200,81,23.692282
207,81,23.778844,200,81,23.708969
204,81,23.795505,198,81,23.725579
201,81,23.812529,194,81,23.742279
197,81,23.82884,190,81,23.758983
192,81,23.845497,184,81,23.775955
188,81,23.862513,178,81,23.792306
185,81,23.878871,172,81,23.808999
182,81,23.895511,168,81,23.825638
181,81,23.912705,163,81,23.842314
180,81,23.928859,160,81,23.8589
180,81,23.945505,159,81,23.875654
180,81,23.962779,159,81,23.892263
179,81,23.978828,159,81,23.909006
179,81,23.995511,160,81,23.925595
177,81,24.012769,162,81,23.942288
176,81,24.028824,163,81,23.958956
174,81,24.045502,164,81,23.975585
172,81,24.062657,164,81,23.992255
170,81,24.078833,164,81,24.008921
168,81,24.095548,164,81,24.025607
166,81,24.112777,162,81,24.042269
164,81,24.128815,161,81,24.058948
162,81,24.145514,159,81,24.075618
160,81,24.162795,158,81,24.092233
158,81,24.178865,156,81,24.108976
157,81,24.195631,155,81,24.125608
156,81,24.212569,153,81,24.142244
155,81,24.228868,152,81,24.158947
154,81,24.245525,152,81,24.175591
154,81,24.262558,151,81,24.192272
153,81,24.278829,150,81,24.209011
153,81,24.295478,150,81,24.225612
152,81,24.312568,151,81,24.24228
150,81,24.328831,150,81,24.258975
149,81,24.345532,150,81,24.275633
148,81,24.362468,149,81,24.292245
148,81,24.378837,149,81,24.308972
150,81,24.395504,149,81,24.325772
154,81,24.41275,150,81,24.34229
162,81,24.428923,153,81,24.35894
171,81,24.445497,158,81,24.375573
182,81,24.462779,166,81,24.392258
191,81,24.478805,174,81,24.408919
200,81,24.495543,183,81,24.425605
205,81,24.512334,191,81,24.442303
206,81,24.528796,197,81,24.458996
206,81,24.545498,200,81,24.475571
204,81,24.562539,200,81,24.492285
201,81,24.578829,198,81,24.508958
197,81,24.59551,194,81,24.525582
193,81,24.612649,189,81,24.542269
189,81,24.628833,184,81,24.558918
186,81,24.645488,178,81,24.575572
182,81,24.662482,172,81,24.59223
179,81,24.67882,168,81,24.608947
178,81,24.69552,164,81,24.625549
176,81,24.712726,160,81,24.642239
176,81,24.728841,158,81,24.659015
175,81,24.745496,158,81,24.675584
175,81,24.762716,158,81,24.692237
174,81,24.778808,159,81,24.708958
172,81,24.795524,160,81,24.725574
170,81,24.812581,161,81,24.742229
168,81,24.828835,162,81,24.758946
167,81,24.845485,163,81,24.775548
164,81,24.862417,163,81,24.792234
162,81,24.878844,162,81,24.808963
160,81,24.895519,161,81,24.825616
158,81,24.912265,160,81,24.842267
157,81,24.928832,158,81,24.858929
155,81,24.94555,157,81,24.875603
154,81,24.962619,155,81,24.892256
152,81,24.978809,154,81,24.908969
151,81,24.995463,153,81,24.925561
150,81,25.012483,152,81,24.942236
149,81,25.028828,151,81,24.958994
149,81,25.045499,150,81,24.975632
148,81,25.062448,150,81,24.992244
148,81,25.078856,150,81,25.008914
147,81,25.09548,149,81,25.025568
146,81,25.112678,149,81,25.042228
145,81,25.128815,149,81,25.058981
143,81,25.145484,149,81,25.075582
142,81,25.162521,148,81,25.092249
142,81,25.178823,148,81,25.108924
144,81,25.195487,149,81,25.12559
149,81,25.212327,150,81,25.142219
156,81,25.228812,154,81,25.159043
166,81,25.245479,159,81,25.175534
175,81,25.262617,167,81,25.192223
185,81,25.27883,175,81,25.208992
193,81,25.295493,185,81,25.22556
198,81,25.312513,193,81,25.242206
200,81,25.328831,198,81,25.258958
200,81,25.345487,201,81,25.275548
197,81,25.362434,201,81,25.292208
194,81,25.378793,198,81,25.308933
190,81,25.395501,193,81,25.325552
186,81,25.412401,188,81,25.342229
183,81,25.428847,182,81,25.358898
180,81,25.445513,176,81,25.375592
177,81,25.462422,170,81,25.392225
175,81,25.478812,167,81,25.408937
174,81,25.495529,163,81,25.425543
173,81,25.512402,161,81,25.442233
172,81,25.528793,159,81,25.459307
172,81,25.545456,160,81,25.475575
171,81,25.56234,160,81,25.492236
170,81,25.578827,162,81,25.508908
169,81,25.595464,163,81,25.525582
168,81,25.612392,164,81,25.54226
167,81,25.628815,164,81,25.558992
164,81,25.64549,164,81,25.575597
162,81,25.662291,164,81,25.592222
159,81,25.678812,163,81,25.608918
157,81,25.695487,162,81,25.625515
155,81,25.712326,161,81,25.642253
152,81,25.728803,160,81,25.658985
151,81,25.745478,158,81,25.675526
149,81,25.762944,157,81,25.692275
148,81,25.778789,155,81,25.709006
147,81,25.795513,154,81,25.725551
146,81,25.812318,154,81,25.742272
145,81,25.828797,153,81,25.758906
145,81,25.845488,152,81,25.775549
144,81,25.862525,152,81,25.792207
143,81,25.878812,152,81,25.808876
143,81,25.895504,151,81,25.825552
142,81,25.912343,151,81,25.842238
141,81,25.928823,150,81,25.858922
140,81,25.945496,150,81,25.875547
140,81,25.962379,150,81,25.892248
142,81,25.978811,150,81,25.908933
146,81,25.995529,150,81,25.925532
153,81,26.012411,153,81,25.942252
162,81,26.028799,158,81,25.958932
172,81,26.045532,165,81,25.975548
182,81,26.062349,172,81,25.992241
191,81,26.078836,182,81,26.008879
198,81,26.09548,190,81,26.025569
200,81,26.112535,196,81,26.042271
201,81,26.128811,199,81,26.058926
199,81,26.145465,200,81,26.075537
197,81,26.162954,198,81,26.092268
193,81,26.178816,194,81,26.10887
189,81,26.195485,188,81,26.12555
185,81,26.212868,182,81,26.142291
181,81,26.228841,176,81,26.158889
178,81,26.245464,171,81,26.175542
175,81,26.262398,167,81,26.19225
173,81,26.278797,163,81,26.208979
172,81,26.295489,160,81,26.225535
172,81,26.31233,158,81,26.242246
172,81,26.328804,158,81,26.258886
171,81,26.345439,158,81,26.275527
170,81,26.362383,159,81,26.292192
169,81,26.378799,161,81,26.308946
168,81,26.395481,162,81,26.325488
166,81,26.412479,163,81,26.342212
164,81,26.430106,164,81,26.358936
162,81,26.445504,164,81,26.375561
160,81,26.462371,164,81,26.392166
157,81,26.478767,163,81,26.409014
155,81,26.495459,161,81,26.425538
153,81,26.512298,159,81,26.442246
151,81,26.528776,158,81,26.458884
150,81,26.545466,156,81,26.475559
148,81,26.562413,155,81,26.492256
147,81,26.578799,154,81,26.508934
146,81,26.595515,153,81,26.525523
145,81,26.612419,152,81,26.542204
144,81,26.628772,152,81,26.558937
143,81,26.645479,151,81,26.575521
142,81,26.662477,151,81,26.592206
141,81,26.678768,150,81,26.608861
140,81,26.696048,150,81,26.625555
139,81,26.712151,150,81,26.642267
138,81,26.72879,149,81,26.658846
137,81,26.745776,149,81,26.675563
136,81,26.762174,149,81,26.692196
137,81,26.778787,149,81,26.708825
139,81,26.795717,149,81,26.725554
144,81,26.812139,152,81,26.742259
152,81,26.828786,157,81,26.758838
162,81,26.845811,164,81,26.775553
172,81,26.862138,172,81,26.792207
181,81,26.878795,181,81,26.808851
189,81,26.895973,190,81,26.825575
193,81,26.912118,196,81,26.842236
194,81,26.928885,200,81,26.858858
193,81,26.945752,200,81,26.87555
190,81,26.962124,198,81,26.892297
187,81,26.978782,195,81,26.908848
184,81,26.995879,190,81,26.925557
180,81,27.012103,184,81,26.942263
176,81,27.028794,178,81,26.958845
173,81,27.04567,172,81,26.975536
170,81,27.062111,168,81,26.992232
168,81,27.078796,164,81,27.008837
167,81,27.09569,161,81,27.025559
165,81,27.112115,159,81,27.042278
164,81,27.12878,159,81,27.058869
163,81,27.145782,161,81,27.075549
162,81,27.162115,162,81,27.092238
161,81,27.178794,164,81,27.108874
160,81,27.196382,166,81,27.125531
158,81,27.212118,168,81,27.142195
157,81,27.228842,168,81,27.158854
156,81,27.245668,169,81,27.175547
154,81,27.262123,169,81,27.192183
153,81,27.278793,169,81,27.208812
151,81,27.295784,168,81,27.225535
149,81,27.312153,167,81,27.242208
148,81,27.328776,166,81,27.258839
146,81,27.345735,164,81,27.27554
144,81,27.362195,163,81,27.292193
143,81,27.378824,161,81,27.308823
142,81,27.395748,161,81,27.325564
142,81,27.412144,160,81,27.342197
141,81,27.428834,159,81,27.358838
140,81,27.445696,159,81,27.375517
140,81,27.462103,159,81,27.392229
140,81,27.478795,159,81,27.408802
139,81,27.495598,158,81,27.425525
138,81,27.512101,157,81,27.4422
138,81,27.528781,157,81,27.458813
138,81,27.545782,157,81,27.475497
139,81,27.562099,157,81,27.492199
141,81,27.578802,159,81,27.508833
146,81,27.595704,163,81,27.525493
153,81,27.612103,168,81,27.542199
161,81,27.628789,175,81,27.558836
170,81,27.645778,184,81,27.57551
178,81,27.662099,193,81,27.592199
185,81,27.678808,200,81,27.608821
189,81,27.695731,205,81,27.625527
191,81,27.71209,206,81,27.642201
190,81,27.728782,205,81,27.658874
187,81,27.745845,202,81,27.675509
184,81,27.76213,197,81,27.692156
180,81,27.778795,192,81,27.708911
176,81,27.795753,186,81,27.725546
172,81,27.812089,180,81,27.742211
169,81,27.828797,174,81,27.758829
167,81,27.845926,170,81,27.775531
165,81,27.862129,168,81,27.792154
163,81,27.87877,166,81,27.808811
161,81,27.895855,164,81,27.825549
160,81,27.912116,164,81,27.842224
158,81,27.928862,165,81,27.858822
156,81,27.946002,166,81,27.875543
155,81,27.962105,167,81,27.892231
153,81,27.978802,168,81,27.908812
151,81,27.995659,168,81,27.925513
150,81,28.012098,169,81,27.942192
148,81,28.028788,168,81,27.958828
146,81,28.045774,168,81,27.975516
145,81,28.062114,168,81,27.992193
143,81,28.078771,167,81,28.008794
142,81,28.095632,165,81,28.025767
141,81,28.11215,164,81,28.04218
140,81,28.128771,162,81,28.058807
139,81,28.146017,161,81,28.075536
138,81,28.162082,159,81,28.09214
138,81,28.178769,158,81,28.108823
138,81,28.195862,157,81,28.125508
137,81,28.212137,156,81,28.142183
137,81,28.228803,155,81,28.158819
137,81,28.245668,154,81,28.175518
137,81,28.262081,154,81,28.192211
137,81,28.278807,153,81,28.208814
137,81,28.295751,153,81,28.225514
138,81,28.312091,153,81,28.242161
140,81,28.328821,154,81,28.258813
145,81,28.345744,157,81,28.275482
151,81,28.362094,163,81,28.292217
159,81,28.37878,170,81,28.308816
168,81,28.395695,180,81,28.325501
175,81,28.412137,189,81,28.342194
182,81,28.428867,197,81,28.358879
187,81,28.445937,202,81,28.3755
190,81,28.462114,204,81,28.392168
190,81,28.478792,204,81,28.408785
189,81,28.495873,200,81,28.425504
187,81,28.512101,196,81,28.442153
184,81,28.528824,191,81,28.458807
181,81,28.545858,185,81,28.475519
178,81,28.562088,179,81,28.492149
176,81,28.578757,173,81,28.508816
174,81,28.595647,168,81,28.525548
172,81,28.612103,165,81,28.542179
170,81,28.628777,163,81,28.558797
169,81,28.645881,162,81,28.575496
169,81,28.662103,162,81,28.592156
168,81,28.678805,162,81,28.60879
168,81,28.69559,163,81,28.625515
168,81,28.712107,165,81,28.64216
167,81,28.728801,166,81,28.658797
166,81,28.745653,167,81,28.675497
165,81,28.76209,167,81,28.692133
163,81,28.778794,166,81,28.708837
162,81,28.795797,165,81,28.725476
160,81,28.812072,164,81,28.742146
159,81,28.828789,163,81,28.758835
158,81,28.845832,161,81,28.775513
157,81,28.862072,159,81,28.792131
157,81,28.878814,158,81,28.808799
156,81,28.895784,157,81,28.825499
156,81,28.912065,156,81,28.842148
156,81,28.928814,155,81,28.858818
156,81,28.945616,155,81,28.875504
156,81,28.962073,154,81,28.892125
155,81,28.978842,153,81,28.908801
155,81,28.99578,153,81,28.925486
155,81,29.012111,152,81,28.942154
154,81,29.028807,151,81,28.958813
154,81,29.045776,151,81,28.975491
155,81,29.062103,151,81,28.992142
158,81,29.078818,153,81,29.008772
164,81,29.095682,157,81,29.025497
171,81,29.112066,163,81,29.042146
182,81,29.128824,170,81,29.058778
193,81,29.145761,180,81,29.075474
204,81,29.162096,189,81,29.092141
212,81,29.178865,197,81,29.108819
218,81,29.19625,202,81,29.125499
221,81,29.212123,204,81,29.142169
222,81,29.228808,205,81,29.158818
220,81,29.245803,202,81,29.175484
217,81,29.262081,197,82,29.192155
213,81,29.278799,192,82,29.208796
208,81,29.295819,186,82,29.225465
204,81,29.312087,180,82,29.242135
200,81,29.328821,175,82,29.258806
196,81,29.34584,170,82,29.2755
193,81,29.362075,167,82,29.292175
191,81,29.378813,164,82,29.308788
189,81,29.395648,163,82,29.325529
188,81,29.4121,163,82,29.342187
186,81,29.428932,163,82,29.358816
184,81,29.445533,164,82,29.375487
182,81,29.462065,165,82,29.392173
180,81,29.478826,166,82,29.408789
178,81,29.495619,167,82,29.425532
176,81,29.512061,167,82,29.442178
173,81,29.528802,166,82,29.458826
170,81,29.545719,165,82,29.475495
168,81,29.562067,164,82,29.492202
166,81,29.57883,163,82,29.508801
163,81,29.595539,161,82,29.525476
160,81,29.612064,159,82,29.542153
158,81,29.628826,158,82,29.558762
156,81,29.645532,156,82,29.575496
154,81,29.662066,155,82,29.592159
153,81,29.678833,154,82,29.608768
151,81,29.695739,154,82,29.625479
150,81,29.712042,153,82,29.642183
149,81,29.728818,153,82,29.658768
148,81,29.745558,152,82,29.67549
147,81,29.762048,152,82,29.692155
146,81,29.778831,151,82,29.708782
146,81,29.795785,150,82,29.725485
147,81,29.812055,150,82,29.742198
151,81,29.828714,151,82,29.758771
158,81,29.845745,155,82,29.775523
168,81,29.862104,161,82,29.792163
179,81,29.878754,168,82,29.808792
191,81,29.8967,177,82,29.825517
203,81,29.912115,187,82,29.842196
211,81,29.928785,195,82,29.858799
217,81,29.945933,202,82,29.875944
219,81,29.962102,205,82,29.892216
218,81,29.978735,206,82,29.908783
216,81,29.996079,204,82,29.925599
213,81,30.012088,200,82,29.942189
209,81,30.028805,195,82,29.958775
205,81,30.046063,189,82,29.975465
200,81,30.062051,183,82,29.992185
196,81,30.078733,178,82,30.008779
193,81,30.095547,173,82,30.025497
191,81,30.112077,169,82,30.042174
190,81,30.128785,167,82,30.058794
189,81,30.145677,164,82,30.075521
188,81,30.162073,164,82,30.092176
187,81,30.178772,164,82,30.108799
186,81,30.195679,165,82,30.125525
184,81,30.212088,166,82,30.142213
182,81,30.228721,167,82,30.158761
180,81,30.245829,168,82,30.175528
178,81,30.262052,168,82,30.19221
175,81,30.278934,167,82,30.208785
173,81,30.295725,167,82,30.225504
170,81,30.312096,166,82,30.242179
168,81,30.328853,164,82,30.258782
165,81,30.345843,163,82,30.275906
163,81,30.362053,161,82,30.292191
160,81,30.378786,160,82,30.308771
158,81,30.395635,158,82,30.32548
157,81,30.412046,157,82,30.342203
155,81,30.428782,156,82,30.358862
153,81,30.445729,155,82,30.375486
152,81,30.462064,155,82,30.392174
151,81,30.478723,154,82,30.408757
149,81,30.495703,154,82,30.425494
148,81,30.512058,154,82,30.442209
147,81,30.528737,153,82,30.458766
146,81,30.545796,153,82,30.475521
146,81,30.562083,153,82,30.492175
146,81,30.578766,153,82,30.508764
150,81,30.595618,154,82,30.525519
157,81,30.612058,157,82,30.54219
167,81,30.628718,163,82,30.558752
178,81,30.645574,170,82,30.575459
191,81,30.662074,178,82,30.592164
203,81,30.678768,189,82,30.60877
211,81,30.695838,197,82,30.625497
216,81,30.712076,203,82,30.64208
217,81,30.728769,207,82,30.658777
216,81,30.745673,207,82,30.675465
213,81,30.762034,206,82,30.692096
209,82,30.778736,202,81,30.708752
205,82,30.795707,197,81,30.725493
201,82,30.81205,191,81,30.742112
197,82,30.828811,185,81,30.758765
194,82,30.845646,179,81,30.775701
191,82,30.862054,173,81,30.792081
189,82,30.87874,169,81,30.808752
187,82,30.895741,167,81,30.825547
186,82,30.912038,165,81,30.842121
185,82,30.928777,164,81,30.858755
184,82,30.945755,164,81,30.875529
183,82,30.962037,165,81,30.89209
181,82,30.978738,166,81,30.908747
179,82,30.995487,167,81,30.926131
177,82,31.01205,168,81,30.942085
174,82,31.028755,168,81,30.958782
172,82,31.045443,167,81,30.975611
169,82,31.062051,166,81,30.992113
167,82,31.078777,165,81,31.008754
165,82,31.095712,163,81,31.025496
162,82,31.11205,162,81,31.042111
160,82,31.128711,161,81,31.05876
157,82,31.14606,159,81,31.075458
155,82,31.162091,158,81,31.092604
153,82,31.178768,157,81,31.108766
151,82,31.195834,156,81,31.125488
150,82,31.212097,155,81,31.142227
148,82,31.228689,154,81,31.158786
147,82,31.245496,153,81,31.175511
146,82,31.262051,153,81,31.192072
145,82,31.278768,152,81,31.208751
144,82,31.295655,152,81,31.225475
144,82,31.31203,151,81,31.242085
145,82,31.32871,151,81,31.258764
148,82,31.345574,153,81,31.275451
155,82,31.362024,156,81,31.292073
165,82,31.378759,161,81,31.308749
176,82,31.395788,168,81,31.325509
189,82,31.412065,177,81,31.342096
201,82,31.428719,187,81,31.358756
210,82,31.445618,196,81,31.375493
215,82,31.462033,203,81,31.392135
217,82,31.478755,207,81,31.40875
216,82,31.495634,208,81,31.425733
213,82,31.512044,207,81,31.442083
210,82,31.528717,203,81,31.458739
206,82,31.545901,198,81,31.475639
201,82,31.562031,192,81,31.492112
197,82,31.578712,186,81,31.508747
193,82,31.595633,180,81,31.525425
190,82,31.612072,175,81,31.542088
187,82,31.62871,170,81,31.55875
185,82,31.645631,168,81,31.575813
184,82,31.662051,166,81,31.59212
183,82,31.678725,165,81,31.608761
182,82,31.69545,165,81,31.62576
181,82,31.712022,166,81,31.642098
179,82,31.728713,167,81,31.658724
178,82,31.74567,168,81,31.675557
176,82,31.762061,168,81,31.692093
174,82,31.778763,168,81,31.708757
172,82,31.795907,168,81,31.725454
170,82,31.812031,168,81,31.742091
168,82,31.828741,167,81,31.758752
165,82,31.845447,165,81,31.775996
162,82,31.862066,164,81,31.792113
159,82,31.87874,163,81,31.808728
156,82,31.895417,161,81,31.825972
154,82,31.912034,159,81,31.842135
151,82,31.928756,158,81,31.858751
149,82,31.945457,157,81,31.875636
147,82,31.962045,156,81,31.892104
145,82,31.978679,155,81,31.908722
143,82,31.995699,155,81,31.925443
141,82,32.01206,154,81,31.94212
139,82,32.028718,154,81,31.958773
138,82,32.045405,153,81,31.975766
137,82,32.062038,152,81,31.99208
136,82,32.078681,152,81,32.008718
138,82,32.095467,153,81,32.025749
142,82,32.112074,155,81,32.042115
150,82,32.12869,160,81,32.058781
161,82,32.145403,167,81,32.075719
172,82,32.16206,175,81,32.092098
184,82,32.178847,185,81,32.108774
195,82,32.195443,194,81,32.125674
203,82,32.212063,202,81,32.142285
207,82,32.228703,207,81,32.158754
208,82,32.245501,209,81,32.176042
206,82,32.262033,209,81,32.192081
202,82,32.278704,206,81,32.208728
198,82,32.295502,201,81,32.225587
193,82,32.312012,196,81,32.242101
188,82,32.328768,190,81,32.259091
184,82,32.345362,184,81,32.275425
180,82,32.362052,178,81,32.292132
177,82,32.37896,173,81,32.308902
175,82,32.395413,169,81,32.325433
172,82,32.412034,167,81,32.342077
171,82,32.428792,166,81,32.359163
169,82,32.445399,166,81,32.375438
168,82,32.462025,166,81,32.392083
167,82,32.479034,168,81,32.409367
165,82,32.495452,168,81,32.425419
163,82,32.512129,169,81,32.442072
160,82,32.528804,170,81,32.458981
158,82,32.545394,170,81,32.475422
155,82,32.562052,170,81,32.49207
153,82,32.578727,168,81,32.509181
150,82,32.595373,168,81,32.52543
148,82,32.612064,166,81,32.542042
146,82,32.628814,164,81,32.559144
144,82,32.645376,163,81,32.575436
142,82,32.662057,161,81,32.592094
141,82,32.678726,160,81,32.609001
140,82,32.695348,159,81,32.625405
139,82,32.712044,158,81,32.642067
138,82,32.728826,158,81,32.659427
137,82,32.745373,157,81,32.675413
136,82,32.762041,156,81,32.692046
136,82,32.778748,155,81,32.709468
135,82,32.795372,155,81,32.725413
135,82,32.81204,155,81,32.742068
136,82,32.828998,155,81,32.759007
138,82,32.845355,157,81,32.775398
143,82,32.862054,160,81,32.79204
150,82,32.878742,166,81,32.80902
159,82,32.895362,173,81,32.825413
169,82,32.912028,182,81,32.842083
180,82,32.928734,192,81,32.858999
188,82,32.9454,201,81,32.875397
194,82,32.962073,208,81,32.892038
197,82,32.979415,212,81,32.908871
197,82,32.995402,213,81,32.925409
195,82,33.012132,211,81,32.942087
191,82,33.02871,207,81,32.959073
187,82,33.045374,202,81,32.975401
182,82,33.062063,197,81,32.992052
178,82,33.078704,190,81,33.009046
174,82,33.095376,184,81,33.02543
170,82,33.112057,179,81,33.042053
168,82,33.128719,175,81,33.058995
166,82,33.145328,171,81,33.075398
164,82,33.162044,170,81,33.092023
163,82,33.178732,169,81,33.109052
162,82,33.195335,169,81,33.125421
160,82,33.212032,170,81,33.142104
159,82,33.228713,171,81,33.159005
157,82,33.245361,173,81,33.175384
156,82,33.262043,174,81,33.192058
154,82,33.278696,174,81,33.209065
152,82,33.295333,174,81,33.225402
151,82,33.312034,173,81,33.242036
149,82,33.328699,171,81,33.259345
147,82,33.345342,170,81,33.275352
146,82,33.36209,168,81,33.292053
145,82,33.378714,168,81,33.309051
144,82,33.395361,166,81,33.325397
143,82,33.412022,164,81,33.342088
143,82,33.428706,163,81,33.359845
142,82,33.445375,162,81,33.375392
142,82,33.462027,161,81,33.392112
142,82,33.478683,161,81,33.409009
141,82,33.49535,160,81,33.425405
141,82,33.512157,159,81,33.442105
141,82,33.528675,158,81,33.459067
142,82,33.545375,158,81,33.47541
145,82,33.562037,158,81,33.492014
150,82,33.578727,159,81,33.508982
158,82,33.595352,163,81,33.525378
168,82,33.612019,169,81,33.542043
180,82,33.628682,177,81,33.559095
194,82,33.645348,187,81,33.57539
206,82,33.66206,197,81,33.592022
216,82,33.678659,205,81,33.608968
223,82,33.695339,211,81,33.625407
226,82,33.712028,215,81,33.642024
226,82,33.728647,215,81,33.65898
223,82,33.745347,212,81,33.675408
220,82,33.762083,208,81,33.692036
191,82,33.778687,203,81,33.709013
189,82,33.795362,197,81,33.725367
187,82,33.812036,190,81,33.74207
185,82,33.82868,184,81,33.758918
183,82,33.845345,179,81,33.775381
181,82,33.862035,174,81,33.792051
180,82,33.878733,171,81,33.808999
179,82,33.895332,169,81,33.825396
179,82,33.912009,168,81,33.842075
178,82,33.928665,169,81,33.859257
177,82,33.945358,169,81,33.875377
176,82,33.962074,170,81,33.892059
174,82,33.978724,171,81,33.909364
173,82,33.995339,171,81,33.925382
172,82,34.012038,171,81,33.942059
170,82,34.028683,170,81,33.959206
168,82,34.045329,169,81,33.975411
168,82,34.062085,168,81,33.992032
166,82,34.078675,167,81,34.008945
165,82,34.095344,165,81,34.025369
164,82,34.112024,163,81,34.042029
162,82,34.128657,161,81,34.059106
161,82,34.145339,159,81,34.0754
160,82,34.161996,158,81,34.092011
160,82,34.17867,157,81,34.109003
159,82,34.195343,155,81,34.125377
158,82,34.212027,155,81,34.142024
157,82,34.228699,154,81,34.159114
157,82,34.245336,154,81,34.175386
157,82,34.262031,153,81,34.192032
157,82,34.278652,153,81,34.209041
157,82,34.295348,153,81,34.225384
160,82,34.312042,155,81,34.242031
164,82,34.328628,159,81,34.259036
169,82,34.34533,166,81,34.27538
176,82,34.362034,174,81,34.292058
183,82,34.37867,185,81,34.309073
190,82,34.395315,195,81,34.325386
196,82,34.412091,205,81,34.342024
199,82,34.428707,212,81,34.359244
200,82,34.445331,216,81,34.375385
200,82,34.461997,217,81,34.392036
199,82,34.478651,215,81,34.409339
198,82,34.495332,211,81,34.425372
195,82,34.511972,206,80,34.442039
193,81,34.528661,200,80,34.459402
191,81,34.545326,194,80,34.475371
189,81,34.562054,188,80,34.492031
187,81,34.578683,182,80,34.50905
186,81,34.595343,177,80,34.525349
185,81,34.61201,173,80,34.542073
184,81,34.62868,171,80,34.559164
183,81,34.645338,170,80,34.57535
183,81,34.662054,169,80,34.592024
182,81,34.678646,169,80,34.60911
181,81,34.69534,170,80,34.625363
180,81,34.712044,170,80,34.642015
178,81,34.728654,171,80,34.659045
177,81,34.745335,171,80,34.675372
175,81,34.762013,171,80,34.692031
173,81,34.778672,170,80,34.708969
172,81,34.795327,168,80,34.725364
170,81,34.812045,167,80,34.742
168,81,34.828645,165,80,34.759288
168,81,34.845323,164,80,34.775367
166,81,34.86204,161,80,34.792025
165,81,34.878658,159,80,34.809135
164,81,34.895306,158,80,34.825336
164,81,34.912114,156,80,34.84205
163,81,34.928663,155,80,34.859303
162,81,34.94535,153,80,34.87534
161,81,34.962001,153,80,34.892046
161,81,34.978842,152,80,34.909213
160,81,34.995304,151,80,34.925343
159,81,35.012028,151,80,34.942029
159,81,35.028635,150,80,34.95924
161,81,35.045315,151,80,34.975324
164,81,35.062041,153,80,34.992027
168,81,35.078636,157,80,35.008958
175,81,35.095311,164,80,35.025355
182,81,35.112037,173,80,35.04207
189,81,35.128613,183,80,35.059017
195,81,35.145316,194,80,35.075372
199,81,35.162,204,80,35.092029
201,81,35.178663,211,80,35.108947
202,81,35.195306,215,80,35.125385
201,81,35.211976,217,80,35.142
199,81,35.228621,215,80,35.158943
197,81,35.245315,212,80,35.175352
194,81,35.262011,206,80,35.192009
192,81,35.278651,200,80,35.209009
190,81,35.295317,193,80,35.225342
187,81,35.312052,186,80,35.242051
186,81,35.328664,180,80,35.259056
184,81,35.345321,175,80,35.275357
184,81,35.362041,171,80,35.292003
183,81,35.378692,169,80,35.308962
182,81,35.395325,168,80,35.325339
181,81,35.412033,168,80,35.342005
180,81,35.428668,168,80,35.359082
179,81,35.445341,169,80,35.375379
177,81,35.461974,169,80,35.392001
176,81,35.478647,170,80,35.40877
174,81,35.495323,169,80,35.425327
173,81,35.512018,169,80,35.441991
171,81,35.528642,168,80,35.459347
169,81,35.545342,167,80,35.475323
168,81,35.561975,165,80,35.491991
168,81,35.578626,163,80,35.508926
167,81,35.595335,161,80,35.525318
166,81,35.611991,159,80,35.542247
165,81,35.62866,157,80,35.558683
164,81,35.645356,156,80,35.575362
163,81,35.661989,155,80,35.592029
162,81,35.678734,154,80,35.60868
162,81,35.695286,153,80,35.625308
161,81,35.711998,152,80,35.642324
160,81,35.728681,152,80,35.658678
158,81,35.745359,151,80,35.675356
157,81,35.761947,151,80,35.692244
157,81,35.778679,150,80,35.708657
156,81,35.79531,149,80,35.725643
156,81,35.812032,148,80,35.742007
157,81,35.828686,148,80,35.758667
160,81,35.845309,150,80,35.775738
164,81,35.862049,155,80,35.79197
170,81,35.878691,162,80,35.808692
176,81,35.895305,170,80,35.825629
183,81,35.912019,181,80,35.841987
188,81,35.928664,192,80,35.858664
192,81,35.945315,201,80,35.875622
194,81,35.961984,208,80,35.891996
194,81,35.97866,212,80,35.908664
194,81,35.995315,213,80,35.92566
192,81,36.011976,211,80,35.941982
190,81,36.028693,206,80,35.958663
188,81,36.045303,201,80,35.975894
185,81,36.061975,194,80,35.991985
183,81,36.07871,187,80,36.008663
181,81,36.095331,181,80,36.025695
179,81,36.111979,175,80,36.042008
178,81,36.1286,171,80,36.058658
177,81,36.145342,168,80,36.075545
177,81,36.162004,168,80,36.092012
176,81,36.178662,167,80,36.10865
175,81,36.19529,168,80,36.125498
174,81,36.212015,168,80,36.142003
173,81,36.228663,169,80,36.158672
171,81,36.245276,170,80,36.175681
170,81,36.262051,171,80,36.191981
168,81,36.278713,172,80,36.208669
167,81,36.295278,171,80,36.225596
166,81,36.311991,171,80,36.24203
164,81,36.328671,169,80,36.258695
162,81,36.345271,168,80,36.275645
161,81,36.362053,167,80,36.292004
159,81,36.378644,165,80,36.308681
158,81,36.395281,163,80,36.325716
157,81,36.411993,161,80,36.34198
156,81,36.42867,160,80,36.358703
155,81,36.445303,159,80,36.375663
155,81,36.461989,158,80,36.391972
154,81,36.478682,158,80,36.408663
153,81,36.495296,158,80,36.425749
153,81,36.511997,158,80,36.441991
152,81,36.528623,157,80,36.458644
152,81,36.545298,157,80,36.475515
151,81,36.561986,156,80,36.491973
151,81,36.578656,156,80,36.508683
151,81,36.595262,155,80,36.525584
152,81,36.611993,156,80,36.541992
154,81,36.628637,157,80,36.55864
158,81,36.645284,161,80,36.57556
164,81,36.662002,168,80,36.592017
170,81,36.678688,175,80,36.608653
177,81,36.695263,185,80,36.625585
184,81,36.711982,195,80,36.641983
188,81,36.728632,205,80,36.65867
191,81,36.745321,211,80,36.6755
192,81,36.761999,215,80,36.691996
191,81,36.778624,215,80,36.708642
189,81,36.795283,213,80,36.725549
187,81,36.812056,209,80,36.741978
184,81,36.828654,203,80,36.758625
182,81,36.845291,197,80,36.77559
179,81,36.862042,190,80,36.791989
177,81,36.87865,184,80,36.808685
175,81,36.895288,178,80,36.825639
174,81,36.912012,174,80,36.841958
173,81,36.928659,171,80,36.858637
172,81,36.945264,169,80,36.87569
172,81,36.962041,169,80,36.891996
171,81,36.97864,169,80,36.908694
170,81,36.995285,170,80,36.925652
168,81,37.012011,171,80,36.941965
168,81,37.028683,172,80,36.958697
166,81,37.045279,173,80,36.975544
164,81,37.062034,173,80,36.991986
162,81,37.078627,172,80,37.008631
160,81,37.095255,171,80,37.02567
158,81,37.112005,170,80,37.041965
157,81,37.128642,168,80,37.058671
156,81,37.145286,167,80,37.075752
155,81,37.162024,166,80,37.092
154,81,37.178655,164,80,37.108668
153,81,37.195425,163,80,37.125701
152,81,37.21202,162,80,37.141959
152,81,37.228609,160,80,37.158662
151,81,37.24526,159,80,37.175684
150,81,37.262033,158,80,37.192046
150,81,37.278646,157,80,37.208626
150,81,37.295261,156,80,37.225705
149,81,37.312014,156,80,37.241947
149,81,37.328631,155,80,37.258677
149,81,37.345281,154,80,37.27569
149,81,37.362051,153,80,37.291977
149,81,37.378676,153,80,37.308649
150,81,37.395275,153,80,37.325848
153,81,37.412023,154,80,37.341991
158,81,37.428631,159,80,37.35863
164,81,37.445272,166,80,37.375732
171,81,37.462035,174,80,37.391942
178,81,37.47863,184,80,37.408613
185,81,37.495245,194,80,37.426211
191,81,37.512005,203,80,37.441972
194,81,37.528577,209,80,37.458657
195,81,37.54527,212,80,37.47579
194,81,37.562025,212,80,37.491947
193,81,37.578595,208,80,37.508691
191,81,37.595228,204,80,37.526299
189,81,37.612018,198,80,37.541942
186,81,37.62861,191,80,37.55866
184,81,37.645242,184,80,37.575539
182,81,37.662033,177,80,37.591931
181,81,37.678637,172,80,37.608614
179,81,37.695291,168,80,37.625778
179,81,37.711998,166,80,37.641969
178,81,37.728598,164,80,37.658637
178,81,37.745259,163,80,37.676412
177,81,37.762062,164,80,37.691952
176,81,37.778651,164,80,37.708621
175,81,37.795242,165,80,37.7256
174,81,37.812033,166,80,37.741984
173,81,37.828666,166,80,37.758624
171,81,37.845258,165,80,37.775535
169,81,37.862028,165,80,37.791976
168,81,37.878615,164,80,37.808619
167,81,37.89525,162,80,37.825706
166,81,37.911945,160,80,37.841952
164,81,37.928603,158,80,37.858628
163,81,37.945279,157,80,37.875679
162,81,37.961957,155,80,37.891931
161,81,37.978603,153,80,37.90863
160,81,37.995246,151,80,37.925835
159,81,38.011941,150,80,37.94196
158,81,38.028571,149,80,37.958647
158,81,38.045269,148,80,37.975604
157,81,38.06192,147,80,37.991981
156,81,38.078581,147,80,38.008631
155,81,38.095273,147,80,38.025579
154,81,38.111925,146,80,38.041932
154,81,38.128606,145,80,38.058651
153,81,38.145241,145,80,38.075763
153,81,38.161948,144,80,38.091986
153,81,38.178628,145,80,38.108652
156,81,38.195249,147,80,38.126558
161,81,38.211937,152,80,38.141944
167,81,38.228627,159,80,38.158599
173,81,38.245238,168,80,38.175938
180,81,38.261956,178,80,38.191928
187,81,38.278591,189,80,38.208615
191,81,38.295255,198,80,38.225645
194,81,38.311973,206,80,38.241933
195,81,38.328625,209,80,38.258621
195,81,38.345241,210,80,38.275634
193,81,38.361945,207,80,38.291964
191,81,38.378625,203,79,38.308588
189,81,38.395249,197,79,38.325625
187,81,38.411954,190,79,38.341943
184,81,38.428633,184,79,38.358637
182,81,38.445309,177,79,38.375706
181,81,38.461978,171,79,38.391946
179,81,38.478638,167,79,38.408618
179,81,38.495246,163,79,38.425607
178,81,38.511926,161,79,38.441954
178,81,38.528585,160,79,38.458587
177,81,38.545242,161,79,38.475507
177,81,38.561918,161,79,38.491948
176,81,38.57861,162,79,38.508611
175,81,38.595251,163,79,38.525521
173,81,38.611922,164,79,38.541947
172,81,38.628564,164,79,38.558598
171,81,38.645251,163,79,38.575744
169,81,38.661927,163,79,38.591918
168,81,38.678565,162,79,38.608652
167,81,38.695261,160,79,38.625675
166,81,38.711953,157,79,38.641924
164,81,38.728567,155,79,38.658603
163,81,38.745231,153,79,38.675636
162,81,38.761922,152,79,38.69196
161,81,38.77858,150,79,38.708638
161,81,38.795281,149,79,38.725375
160,81,38.811925,147,79,38.741922
159,81,38.828558,147,79,38.758642
159,81,38.845225,146,79,38.775523
158,81,38.861921,145,79,38.791949
158,81,38.878608,145,79,38.808598
157,81,38.895244,144,79,38.825538
156,81,38.911933,144,79,38.841931
155,81,38.92857,144,79,38.858575
155,81,38.945277,143,79,38.875548
155,81,38.96193,143,79,38.891942
157,81,38.9786,144,79,38.908601
161,81,38.995235,147,79,38.925485
167,81,39.011942,153,79,38.941939
172,81,39.028588,161,79,38.958638
179,81,39.045227,170,79,38.975985
186,81,39.061925,181,79,38.991935
191,81,39.078562,192,79,39.008602
194,81,39.095227,201,79,39.025661
196,81,39.111926,206,79,39.041952
196,81,39.128607,208,79,39.058603
195,81,39.14523,207,79,39.075663
193,81,39.161925,204,79,39.091971
191,81,39.178594,198,79,39.108588
188,81,39.195239,192,79,39.125598
186,81,39.211977,185,79,39.141974
183,81,39.228659,178,79,39.158612
181,81,39.24523,172,79,39.17568
179,81,39.261973,167,79,39.19193
178,81,39.278547,162,79,39.208583
177,81,39.295236,159,79,39.225511
176,81,39.311918,157,79,39.24193
175,81,39.328574,157,79,39.2586
174,81,39.34525,157,79,39.275703
173,81,39.361903,158,79,39.291923
172,81,39.378559,160,79,39.308596
171,81,39.395232,161,79,39.32562
169,81,39.411914,162,79,39.341936
168,81,39.428559,163,79,39.3586
167,81,39.445229,162,79,39.375572
166,81,39.461947,161,79,39.391916
164,81,39.478555,159,79,39.408587
162,81,39.495252,157,79,39.425498
161,81,39.511974,155,79,39.441925
160,81,39.528549,153,79,39.458566
158,81,39.545247,151,79,39.475459
158,81,39.56193,150,79,39.491951
157,81,39.578583,148,79,39.50856
156,81,39.595227,148,79,39.525441
155,81,39.611951,147,79,39.54196
155,81,39.628582,147,79,39.558596
154,81,39.645211,147,79,39.575594
153,81,39.661928,146,79,39.591905
153,81,39.678572,146,79,39.608582
152,81,39.695234,146,79,39.625552
152,81,39.711998,146,79,39.641925
151,81,39.728591,145,79,39.658604
151,81,39.745244,145,79,39.675768
152,81,39.761899,146,79,39.691931
154,81,39.778563,148,79,39.70859
157,81,39.795264,152,79,39.725403
162,81,39.811914,159,79,39.741902
168,81,39.82858,168,79,39.758591
173,81,39.845237,179,79,39.775503
179,81,39.861939,190,79,39.791909
183,81,39.878556,199,79,39.808582
185,81,39.895224,206,79,39.825644
185,81,39.911948,209,79,39.841896
185,81,39.928541,209,79,39.858586
183,81,39.945214,206,79,39.875584
181,81,39.961941,201,78,39.891892
179,81,39.978542,195,78,39.908612
176,81,39.995213,188,78,39.925545
174,81,40.011938,181,78,39.941923
172,81,40.028564,175,78,39.958599
170,81,40.045228,169,78,39.975608
169,81,40.062027,165,78,39.99191
168,81,40.078546,162,78,40.008614
168,81,40.095205,161,78,40.025658
168,81,40.11199,160,78,40.041929
167,81,40.128562,161,78,40.058616
166,81,40.145229,163,78,40.075477
166,81,40.161919,165,78,40.091912
165,81,40.17855,166,78,40.108568
163,81,40.195239,167,78,40.125491
162,81,40.211967,168,78,40.142169
160,81,40.228588,168,78,40.158574
159,81,40.245225,167,78,40.175599
158,81,40.262084,165,78,40.191919
156,81,40.278565,164,78,40.208616
155,81,40.295204,162,78,40.225547
154,81,40.311953,161,78,40.241905
153,81,40.328613,160,78,40.258553
152,81,40.345213,159,78,40.275615
151,81,40.361912,158,78,40.291945
150,81,40.378573,157,78,40.308555
149,81,40.395225,156,78,40.325597
149,81,40.412037,156,78,40.341885
149,81,40.428562,155,78,40.358955
148,81,40.4454,154,78,40.375248
148,81,40.461884,154,78,40.391881
148,81,40.478536,154,78,40.408827
147,81,40.495271,153,78,40.425232
148,81,40.511862,153,78,40.441929
149,81,40.52853,154,78,40.458996
152,81,40.545301,157,78,40.475229
156,81,40.561854,162,78,40.491908
161,81,40.578569,169,78,40.508916
167,81,40.59528,180,78,40.525228
172,81,40.611866,191,78,40.541935
178,81,40.628564,200,78,40.55903
182,81,40.645332,209,78,40.575244
184,81,40.661897,214,78,40.59189
185,81,40.678585,215,78,40.608886
185,81,40.695267,214,78,40.625235
183,81,40.711864,209,78,40.641869
182,81,40.728559,204,78,40.658874
179,81,40.745265,197,78,40.675249
177,81,40.761877,190,78,40.691887
175,81,40.778531,183,78,40.708899
173,81,40.795245,176,78,40.725214
171,81,40.811862,171,78,40.741934
170,81,40.828573,168,78,40.758896
169,81,40.845261,166,78,40.775236
168,81,40.861869,166,78,40.791909
168,81,40.878557,166,78,40.808912
168,81,40.89527,167,78,40.8252
167,81,40.911879,168,78,40.841888
166,81,40.928576,169,78,40.859211
165,81,40.945491,170,78,40.875241
165,81,40.961909,170,78,40.891912
164,81,40.978554,170,78,40.908925
162,81,40.995346,169,78,40.925223
161,81,41.011873,168,78,40.941922
160,81,41.028561,167,78,40.958919
159,81,41.045407,165,78,40.975225
159,81,41.061845,163,78,40.991863
158,81,41.07855,161,78,41.008769
157,81,41.095543,159,78,41.025208
157,81,41.111863,158,78,41.041915
156,81,41.12857,156,78,41.058976
156,81,41.145341,155,78,41.075226
155,81,41.161861,154,78,41.091863
155,81,41.178515,153,78,41.108838
155,81,41.195229,151,78,41.125341
154,81,41.211882,150,78,41.141887
154,81,41.228553,149,78,41.15877
154,81,41.245448,148,78,41.175229
155,81,41.261882,148,78,41.191885
158,81,41.278506,150,78,41.208814
162,81,41.295525,153,78,41.225226
168,81,41.31186,160,78,41.241911
173,81,41.328565,169,78,41.258978
180,81,41.345339,180,78,41.275232
187,81,41.36187,191,78,41.291874
192,81,41.378519,201,78,41.30898
195,81,41.395218,208,78,41.325228
196,81,41.411863,212,78,41.341914
196,81,41.428527,212,78,41.3587
195,81,41.445462,209,78,41.375235
193,81,41.461876,204,78,41.391881
191,81,41.478564,198,78,41.409041
189,81,41.495608,191,78,41.425186
187,81,41.511881,184,78,41.441888
185,81,41.528546,177,78,41.458975
184,81,41.545253,171,78,41.475218
182,81,41.561901,168,78,41.491885
181,81,41.578533,165,78,41.508943
180,81,41.595229,164,78,41.525197
180,81,41.611853,163,78,41.541867
179,81,41.628538,164,78,41.558654
178,81,41.645562,165,78,41.575204
177,81,41.661874,166,78,41.591897
176,81,41.678537,167,78,41.609
175,81,41.6954,167,78,41.625211
173,81,41.711832,168,78,41.64193
172,81,41.728496,166,78,41.658983
170,81,41.745594,165,78,41.675207
169,81,41.761839,164,78,41.691892
168,81,41.778543,161,78,41.708897
167,81,41.795269,160,78,41.725203
165,81,41.811842,158,78,41.741875
164,81,41.828543,156,78,41.758905
163,81,41.845312,154,78,41.775189
162,81,41.861839,153,78,41.791874
162,81,41.878518,152,78,41.808947
161,81,41.895333,151,78,41.825217
160,81,41.911852,150,78,41.841862
159,81,41.928507,149,78,41.858859
158,81,41.945466,148,78,41.875253
158,81,41.961893,148,78,41.891871
157,81,41.978535,147,78,41.908771
158,81,41.995459,147,78,41.925213
160,81,42.011859,147,78,41.94187
163,81,42.028529,150,78,41.958946
168,81,42.045246,156,78,41.975184
174,81,42.061855,164,78,41.991908
180,81,42.078523,173,78,42.008711
187,81,42.095461,185,78,42.025167
192,81,42.111865,196,78,42.041832
195,81,42.128521,206,78,42.058938
196,81,42.145337,212,78,42.075217
196,81,42.161888,215,78,42.091905
195,81,42.178509,214,78,42.108821
194,81,42.195566,211,78,42.125211
192,81,42.211856,206,78,42.141873
189,81,42.228507,200,78,42.158822
187,81,42.245256,193,78,42.175204
185,81,42.261853,186,78,42.191891
183,81,42.27855,179,78,42.209175
182,81,42.295404,174,78,42.225225
180,81,42.31185,169,78,42.241848
179,81,42.328485,167,78,42.258763
178,81,42.34555,165,78,42.275225
177,81,42.361874,165,78,42.291842
177,81,42.378505,165,78,42.308925
176,81,42.395399,166,78,42.325192
175,81,42.411839,167,78,42.341838
174,81,42.428495,168,78,42.359172
172,81,42.445427,168,78,42.375227
171,81,42.46186,168,78,42.39185
170,81,42.478529,168,78,42.408709
168,81,42.49576,167,78,42.425178
168,81,42.511887,165,78,42.441854
166,81,42.528522,162,78,42.45876
165,81,42.545487,160,78,42.475183
164,81,42.56182,158,78,42.49187
163,81,42.578509,156,78,42.50873
163,81,42.595626,155,78,42.525165
162,81,42.611855,154,78,42.541865
161,81,42.628476,153,78,42.558792
161,81,42.645446,152,78,42.575173
160,81,42.661832,151,78,42.591835
159,81,42.678536,151,78,42.608817
158,81,42.695509,150,78,42.625194
158,81,42.711841,149,78,42.641833
158,81,42.728509,149,78,42.65877
159,81,42.745388,149,78,42.675208
162,81,42.761847,150,78,42.691845
167,81,42.778513,154,78,42.708664
171,81,42.79544,162,78,42.725184
178,81,42.811835,170,78,42.741851
184,81,42.8285,181,78,42.758789
190,81,42.845466,193,78,42.775164
193,81,42.861843,204,78,42.791852
195,81,42.878504,213,78,42.808801
195,81,42.89547,217,78,42.825254
194,81,42.911809,219,78,42.841839
193,81,42.928505,217,78,42.858764
191,81,42.945509,213,78,42.875225
189,81,42.96184,207,78,42.891859
186,81,42.978487,200,78,42.908795
184,81,42.995576,193,78,42.925228
182,81,43.011856,185,78,42.941851
180,81,43.028472,179,78,42.958641
179,81,43.045451,173,78,42.975193
177,81,43.061839,169,78,42.991851
177,81,43.078477,167,78,43.008722
176,81,43.095696,166,78,43.025173
175,81,43.111837,167,78,43.041841
174,81,43.128485,168,78,43.05874
173,81,43.145448,168,78,43.07515
171,81,43.16187,169,78,43.091843
170,81,43.178481,171,78,43.10885
168,81,43.195611,171,78,43.125193
167,81,43.211846,170,78,43.141825
166,81,43.228513,169,78,43.158698
164,81,43.245482,168,78,43.175181
163,81,43.261824,167,78,43.19183
161,81,43.278488,165,78,43.208856
160,81,43.295368,163,78,43.225167
159,81,43.311814,161,78,43.241871
158,81,43.328529,159,78,43.25875
156,81,43.345437,157,78,43.275184
156,81,43.361831,156,78,43.291818
155,81,43.378487,155,78,43.308633
154,81,43.395307,154,78,43.325205
153,81,43.41222,154,78,43.341917
152,81,43.428503,153,78,43.35869
151,81,43.445465,152,78,43.375188
150,81,43.461879,151,78,43.39182
150,81,43.478532,150,78,43.408818
151,81,43.495556,150,78,43.425173
153,81,43.511793,152,78,43.441841
158,81,43.528494,156,78,43.458829
163,81,43.545745,163,78,43.475141
169,81,43.561811,171,78,43.491829
175,81,43.578499,182,78,43.508829
181,81,43.595461,193,78,43.525187
185,81,43.611823,203,78,43.54184
187,81,43.628469,211,78,43.558772
188,81,43.645399,214,78,43.575178
187,81,43.661826,215,78,43.591844
185,81,43.678469,213,78,43.608712
183,81,43.695531,208,79,43.625169
181,81,43.711811,202,79,43.641843
178,81,43.728469,195,79,43.658752
176,81,43.745569,188,79,43.675152
174,81,43.761826,181,79,43.691853
173,81,43.778519,175,79,43.708871
172,81,43.795412,170,79,43.725158
172,81,43.811805,168,79,43.741809
172,81,43.82847,166,79,43.75881
172,81,43.845357,165,79,43.775152
171,81,43.861817,166,79,43.79183
170,81,43.878488,167,79,43.808752
169,81,43.895528,168,79,43.825166
168,81,43.911815,168,79,43.841851
168,81,43.928504,169,79,43.858806
166,81,43.945433,169,79,43.875205
165,81,43.961833,169,79,43.891853
163,81,43.978487,168,79,43.908742
161,81,43.99536,168,79,43.925167
160,81,44.011829,167,79,43.941852
158,81,44.028479,165,79,43.959239
157,81,44.045544,164,79,43.975153
156,81,44.061856,163,79,43.991805
155,81,44.078492,162,79,44.008876
154,81,44.095431,161,79,44.025174
153,81,44.111792,160,79,44.041779
153,81,44.128481,160,79,44.058844
153,81,44.145572,159,79,44.075157
152,81,44.161776,158,79,44.091802
152,81,44.178517,157,79,44.10883
152,81,44.195334,156,79,44.125172
152,81,44.211834,155,79,44.141796
152,81,44.228458,154,79,44.158945
154,81,44.245538,155,79,44.175166
157,81,44.261805,156,79,44.191833
161,81,44.278463,161,79,44.208816
168,81,44.295451,168,79,44.225166
173,81,44.311795,177,79,44.241824
180,81,44.328455,189,79,44.258843
185,81,44.345489,200,79,44.275155
189,81,44.361826,210,79,44.291827
190,81,44.378483,216,79,44.308841
191,81,44.395393,220,79,44.325153
190,81,44.411806,220,79,44.34181
189,81,44.428451,217,79,44.358834
187,81,44.445528,212,79,44.375168
185,81,44.461849,205,79,44.391806
183,81,44.478487,198,79,44.408764
181,81,44.495583,190,79,44.425163
179,81,44.511795,183,79,44.441811
178,81,44.528465,177,79,44.458903
177,81,44.545449,172,79,44.475174
176,81,44.561816,169,79,44.491821
175,81,44.578478,168,79,44.508858
175,81,44.595463,167,79,44.525229
174,81,44.611845,168,79,44.541794
173,81,44.628504,168,79,44.558766
172,81,44.647226,168,79,44.575202
171,81,44.661856,169,79,44.591818
170,81,44.679858,169,79,44.611026
169,81,44.695474,169,79,44.625512
168,81,44.711889,168,79,44.642069
167,81,44.728781,167,79,44.65856
165,81,44.745246,165,79,44.675523
164,81,44.762,164,79,44.692128
163,81,44.778631,162,79,44.708761
162,81,44.795166,160,79,44.726881
161,81,44.812056,158,79,44.741823
160,81,44.828486,156,79,44.758701
159,81,44.845204,154,79,44.776322
158,81,44.862127,153,79,44.792123
158,81,44.878491,152,79,44.808534
157,81,44.895195,151,79,44.825381
156,81,44.912138,150,79,44.841804
156,81,44.928462,149,79,44.859163
155,81,44.945193,148,79,44.875418
155,81,44.962149,148,79,44.891801
156,81,44.978517,147,79,44.908561
158,81,44.995221,147,79,44.926608
161,81,45.012055,150,79,44.941804
167,81,45.028468,155,79,44.958824
172,81,45.045199,163,79,44.975611
178,81,45.062073,172,79,44.991792
184,81,45.078477,183,79,45.008571
188,81,45.09525,195,79,45.025699
190,81,45.113114,204,79,45.042275
191,81,45.128475,211,79,45.058553
190,81,45.145184,214,79,45.075472
189,81,45.162196,213,79,45.091818
187,81,45.178453,210,79,45.108541
185,81,45.195354,205,80,45.125569
182,81,45.21194,198,80,45.141791
180,81,45.228491,191,80,45.158567
178,81,45.245176,184,80,45.175241
176,81,45.262068,177,80,45.191782
174,81,45.278482,171,80,45.20845
174,81,45.295167,168,80,45.225316
173,81,45.312035,165,80,45.2418
173,81,45.328454,163,80,45.258422
172,81,45.345182,163,80,45.275321
172,81,45.361921,163,80,45.291828
171,81,45.378483,164,80,45.308641
170,81,45.395361,166,80,45.325134
169,81,45.411768,166,80,45.341832
168,81,45.428472,167,80,45.358584
168,81,45.445421,167,80,45.375107
166,81,45.461814,166,80,45.391792
165,81,45.478453,165,80,45.408655
163,81,45.495625,163,80,45.42509
162,81,45.511769,161,80,45.441834
161,81,45.528468,159,80,45.459386
160,81,45.545257,157,80,45.475115
159,81,45.561781,155,80,45.491788
158,81,45.578435,154,80,45.509047
158,81,45.595502,152,80,45.525132
157,81,45.611773,152,80,45.541812
157,81,45.628438,151,80,45.558764
157,81,45.645499,150,80,45.575127
157,81,45.661773,150,80,45.591791
156,81,45.678448,150,80,45.608994
156,81,45.69543,149,80,45.625125
156,81,45.711799,148,80,45.641791
156,81,45.728447,147,80,45.658722
157,81,45.745613,147,80,45.675123
160,81,45.761784,147,80,45.691791
164,81,45.77844,150,80,45.708684
168,81,45.795283,155,80,45.725148
173,81,45.811778,162,80,45.74176
179,81,45.828427,172,80,45.758699
184,81,45.845315,183,80,45.775121
188,81,45.861774,195,80,45.791829
190,81,45.87845,204,80,45.808731
190,81,45.895436,211,80,45.825099
190,81,45.911774,214,80,45.841774
188,81,45.928458,214,80,45.85876
186,81,45.94541,211,80,45.875123
184,81,45.961821,206,80,45.891803
182,81,45.978444,200,80,45.90877
179,81,45.995228,192,80,45.925085
177,81,46.011767,185,80,45.94233
175,81,46.02852,179,80,45.958434
174,81,46.045103,173,80,45.975093
173,81,46.061774,168,80,45.99189
172,81,46.078662,165,80,46.008431
172,81,46.095109,163,80,46.025115
171,81,46.111778,162,80,46.042342
170,81,46.128766,162,80,46.058447
169,81,46.145128,163,80,46.075116
168,81,46.161793,165,80,46.092066
168,81,46.179284,166,80,46.108442
166,81,46.195118,167,80,46.125129
165,81,46.211769,167,80,46.141901
164,81,46.228629,166,80,46.158445
163,81,46.245125,165,80,46.17514
161,81,46.261762,164,80,46.192215
160,81,46.280606,162,80,46.208434
159,81,46.295897,160,80,46.22523
158,81,46.311796,158,80,46.242111
158,81,46.328882,156,80,46.258452
157,81,46.348461,155,80,46.275153
157,81,46.361818,153,80,46.291865
156,81,46.378586,152,80,46.308431
156,81,46.395135,151,80,46.325101
156,81,46.411781,150,80,46.342046
156,81,46.42882,149,80,46.358455
156,81,46.445132,149,80,46.375118
156,81,46.461798,148,80,46.392267
155,81,46.479167,147,80,46.408445
155,81,46.495126,147,80,46.425124
155,81,46.51179,147,80,46.441942
156,81,46.52886,146,80,46.458426
159,81,46.545096,147,80,46.475073
163,81,46.561786,150,80,46.492107
168,81,46.578853,156,80,46.508421
173,81,46.595099,164,80,46.525099
178,81,46.611747,173,80,46.542238
183,81,46.6289,185,80,46.558436
186,81,46.645125,195,80,46.575097
188,81,46.661774,204,80,46.592144
188,81,46.678683,210,80,46.608432
187,81,46.695102,212,80,46.625111
186,81,46.711764,211,80,46.642011
184,81,46.72885,207,80,46.658422
181,81,46.745099,202,80,46.675127
179,81,46.761749,195,80,46.692148
176,81,46.778711,188,80,46.70844
175,81,46.795095,180,80,46.725102
173,81,46.811759,173,80,46.742181
172,81,46.828746,168,80,46.758427
172,81,46.845133,164,80,46.775094
172,81,46.861768,161,80,46.792201
171,81,46.878779,160,80,46.808425
170,81,46.895074,160,80,46.825089
170,81,46.91176,162,80,46.842069
169,81,46.928824,163,80,46.858461
168,81,46.945109,164,80,46.875047
167,81,46.961743,165,80,46.892263
166,81,46.978839,166,80,46.90844
165,81,46.995138,165,80,46.925141
164,81,47.011762,164,80,46.942237
163,81,47.02857,163,80,46.958396
161,81,47.0451,162,80,46.975114
160,81,47.061801,160,80,46.992197
159,81,47.078685,157,80,47.008417
158,81,47.095098,156,80,47.025076
157,81,47.111757,154,80,47.041965
156,81,47.128822,152,80,47.058406
156,81,47.145071,151,80,47.075082
156,81,47.161739,150,80,47.092341
155,81,47.178778,149,80,47.108441
155,81,47.195116,148,80,47.125084
154,81,47.211748,148,80,47.142221
153,81,47.228797,148,80,47.158414
153,81,47.2451,148,80,47.175067
152,81,47.261739,147,80,47.192011
151,81,47.278984,146,80,47.208417
150,81,47.295083,146,80,47.225079
150,81,47.31173,145,80,47.241923
151,81,47.328677,145,80,47.258448
153,81,47.345075,146,80,47.275067
157,81,47.361734,150,80,47.291929
162,81,47.37865,156,80,47.308401
167,81,47.395094,165,80,47.325116
172,81,47.411739,174,80,47.341967
176,81,47.428698,185,80,47.358472
179,81,47.445082,195,80,47.375088
181,81,47.461738,203,80,47.392059
181,81,47.479013,207,80,47.408429
180,81,47.495123,208,80,47.425127
189,80,47.511746,206,80,47.441958
185,80,47.52862,202,79,47.458433
180,80,47.545113,195,79,47.475106
175,80,47.561755,188,79,47.491877
171,80,47.578615,180,79,47.508429
168,80,47.595092,173,79,47.525084
166,80,47.611757,168,79,47.541899
163,80,47.628735,163,79,47.55843
162,80,47.645082,159,79,47.575071
161,80,47.661742,158,79,47.592027
160,80,47.67859,158,79,47.608376
159,80,47.695083,159,79,47.625072
158,80,47.711757,160,79,47.641815
157,80,47.728769,161,79,47.658393
156,80,47.745077,163,79,47.675047
154,80,47.761775,163,79,47.691842
152,80,47.778806,164,79,47.7084
150,80,47.79507,163,79,47.725101
147,80,47.811734,163,79,47.741883
145,80,47.828675,162,79,47.758394
142,80,47.845059,160,79,47.775114
140,80,47.861727,159,79,47.792035
138,80,47.878704,157,79,47.808396
136,80,47.895056,156,79,47.825084
135,80,47.911726,154,79,47.842062
133,80,47.928738,153,79,47.858406
131,80,47.945094,152,79,47.875103
130,80,47.961726,152,79,47.89185
129,80,47.978795,151,79,47.908417
128,80,47.995092,150,79,47.925207
128,80,48.011724,150,79,47.942098
128,80,48.028826,149,79,47.958444
128,80,48.045076,149,79,47.97507
128,80,48.061748,148,79,47.991933
128,80,48.07867,148,79,48.008373
128,80,48.095056,148,79,48.025105
128,80,48.111728,149,79,48.042059
132,80,48.128718,152,79,48.058398
140,80,48.145085,157,79,48.075063
151,80,48.161723,166,79,48.091995
162,80,48.178873,175,79,48.108414
171,80,48.195104,187,79,48.125084
179,80,48.21176,197,79,48.142008
185,80,48.228715,206,79,48.15838
187,80,48.245103,211,79,48.175037
186,80,48.261716,212,79,48.192059
184,80,48.278721,210,79,48.208384
180,80,48.295059,206,79,48.225092
175,80,48.311747,200,79,48.241861
171,80,48.328775,193,79,48.258403
167,80,48.345049,185,79,48.275209
163,80,48.362128,179,79,48.291694
159,80,48.378424,172,79,48.308381
157,80,48.395068,168,79,48.325294
155,80,48.412066,164,79,48.341699
154,80,48.428382,162,79,48.35864
153,80,48.445402,162,79,48.375047
152,80,48.46171,161,79,48.391703
151,80,48.478436,162,79,48.40863
150,80,48.495494,164,79,48.425037
149,80,48.51173,165,79,48.441721
147,80,48.528377,166,79,48.458678
146,80,48.545426,166,79,48.475062
144,80,48.561713,166,79,48.491746
143,80,48.57836,165,79,48.508659
141,80,48.595391,165,79,48.525066
139,80,48.611741,163,79,48.541752
137,80,48.628373,161,79,48.558593
136,80,48.645357,159,79,48.575026
134,80,48.66174,158,79,48.591721
133,80,48.678377,156,79,48.608669
132,80,48.695261,154,79,48.625076
132,80,48.711715,153,79,48.641708
131,80,48.72841,152,79,48.658586
131,80,48.745307,151,79,48.67506
130,80,48.761732,149,79,48.69172
130,80,48.778396,149,79,48.708483
130,80,48.79548,148,79,48.725025
130,80,48.811741,147,79,48.74172
130,80,48.82838,146,79,48.758598
132,80,48.84529,145,79,48.775026
135,80,48.861731,146,79,48.791718
142,80,48.878385,150,79,48.808645
152,80,48.895296,156,79,48.825038
164,80,48.911753,165,79,48.841728
175,80,48.928383,174,79,48.858618
187,80,48.945303,186,79,48.875025
197,80,48.961756,196,79,48.891688
203,80,48.97839,204,79,48.908629
206,80,48.995342,208,79,48.925028
206,80,49.01172,209,79,48.941701
205,80,49.028396,208,79,48.95859
202,80,49.0453,204,79,48.975039
198,80,49.061683,198,79,48.991714
194,80,49.078436,191,79,49.008631
190,80,49.095479,184,79,49.025036
186,80,49.111705,177,79,49.041696
183,80,49.128397,171,79,49.058733
180,80,49.14538,167,79,49.075042
179,80,49.161716,163,79,49.091761
177,80,49.178393,161,79,49.108572
176,80,49.195337,160,79,49.125058
176,80,49.211708,161,79,49.141705
175,80,49.22837,162,79,49.158605
173,80,49.245624,163,79,49.175056
172,80,49.261735,164,79,49.191699
170,80,49.27837,165,79,49.208701
168,80,49.295487,165,79,49.225037
165,80,49.311731,165,79,49.241717
162,80,49.328366,164,79,49.258699
158,80,49.345455,163,79,49.27504
154,80,49.361709,162,79,49.291722
150,80,49.378406,160,79,49.308518
146,80,49.395368,158,79,49.325024
143,80,49.41171,157,79,49.341713
140,80,49.428371,155,79,49.358544
138,80,49.445353,153,79,49.375026
137,80,49.461719,152,79,49.391773
135,80,49.478429,152,79,49.408521
134,80,49.497315,151,79,49.42507
134,80,49.511744,150,79,49.441706
133,80,49.528485,149,79,49.458744
133,80,49.545381,149,79,49.475017
133,80,49.561741,148,79,49.491672
134,80,49.578387,147,79,49.508654
136,80,49.59537,147,79,49.525023
141,80,49.61174,148,79,49.541697
149,80,49.628375,153,79,49.558499
160,80,49.645285,160,79,49.575026
172,80,49.661719,168,79,49.591708
185,80,49.678374,180,79,49.608561
197,80,49.695379,192,79,49.62504
206,80,49.711691,203,79,49.641678
212,80,49.728382,211,79,49.658581
213,80,49.745461,215,79,49.675033
213,80,49.761693,216,79,49.691679
210,80,49.778375,214,79,49.70859
207,79,49.795237,210,79,49.725031
203,79,49.811703,204,79,49.741696
198,79,49.828364,196,79,49.758584
194,79,49.845352,189,79,49.775035
190,79,49.861708,182,79,49.791686
187,79,49.878361,175,79,49.808388
184,79,49.895489,169,79,49.825039
182,79,49.911694,167,79,49.841713
181,79,49.928361,164,79,49.858542
179,79,49.945375,163,79,49.874995
177,79,49.961706,163,79,49.891714
176,79,49.978383,164,79,49.908531
174,79,49.995498,166,79,49.925021
171,79,50.011703,167,79,49.941693
168,79,50.028359,168,79,49.958559
166,79,50.045408,168,79,49.975008
163,79,50.061696,168,79,49.991671
160,79,50.078359,168,79,50.008415
157,79,50.09542,166,79,50.025018
155,79,50.111734,164,79,50.041692
152,79,50.128345,162,79,50.05851
150,79,50.145325,160,79,50.075013
148,79,50.161711,158,79,50.091716
147,79,50.178378,156,79,50.108632
145,79,50.195565,155,79,50.125046
144,79,50.21176,153,79,50.141741
143,79,50.228368,152,79,50.158596
142,79,50.245447,151,79,50.175016
140,79,50.261669,150,79,50.191692
139,79,50.278394,149,79,50.208565
138,79,50.295534,148,79,50.225004
138,79,50.311718,147,79,50.241684
138,79,50.328388,147,79,50.258675
141,79,50.345412,148,79,50.275027
146,79,50.36178,150,79,50.291697
154,79,50.378475,155,79,50.309039
165,79,50.395279,163,79,50.325026
176,79,50.411715,172,79,50.341713
188,79,50.428419,184,79,50.358433
197,79,50.445199,195,79,50.375226
204,79,50.46171,205,79,50.391712
208,79,50.478363,212,79,50.408671
208,79,50.496302,215,79,50.425143
207,79,50.511694,215,79,50.441694
204,79,50.528355,212,79,50.458521
200,79,50.547612,207,79,50.477516
196,79,50.561808,200,79,50.492
192,79,50.578359,193,79,50.508522
188,79,50.595372,186,79,50.525065
184,79,50.611709,179,79,50.541919
181,79,50.628397,172,79,50.558458
179,79,50.645694,168,79,50.575035
177,79,50.661694,165,79,50.592045
176,79,50.678346,163,79,50.608524
174,79,50.695228,163,79,50.625024
173,79,50.711744,163,79,50.641849
171,79,50.728352,164,79,50.658477
169,79,50.745145,166,79,50.675165
168,79,50.761701,167,79,50.69171
165,79,50.778537,167,79,50.708388
162,79,50.795025,167,79,50.72535
159,79,50.811734,166,79,50.742302
157,79,50.82878,165,79,50.75832
154,79,50.845012,163,79,50.775254
151,79,50.861711,161,79,50.791756
149,79,50.878554,159,79,50.808346
147,79,50.89528,157,79,50.825084
144,79,50.911715,155,79,50.841689
143,79,50.928536,153,79,50.85838
141,79,50.94502,152,79,50.875121
139,79,50.961675,151,79,50.891724
138,79,50.978549,150,79,50.908356
136,79,50.995053,150,79,50.925319
135,79,51.011734,149,79,50.941708
134,79,51.028731,148,79,50.958347
132,79,51.045022,147,79,50.975088
131,79,51.06173,146,79,50.991795
131,79,51.078739,146,79,51.00835
132,79,51.09502,146,79,51.025185
136,79,51.111689,149,79,51.041715
142,79,51.128487,154,79,51.058406
151,79,51.145032,161,79,51.075099
162,79,51.161702,170,79,51.091803
172,79,51.178647,182,79,51.108956
182,79,51.195044,193,79,51.125291
190,79,51.21175,202,79,51.14171
194,79,51.228545,209,79,51.158864
196,79,51.245002,212,79,51.175211
194,79,51.26169,211,79,51.191873
191,79,51.278657,208,79,51.208618
187,79,51.295034,203,79,51.225254
183,79,51.311674,196,79,51.241756
178,79,51.328553,189,79,51.258343
173,79,51.345053,182,79,51.275248
169,79,51.361738,175,79,51.291766
167,79,51.378474,169,79,51.308553
164,79,51.395022,165,79,51.325047
161,79,51.411667,162,79,51.341819
160,79,51.428448,161,79,51.358515
158,79,51.445029,161,79,51.375021
157,79,51.461842,162,79,51.392103
155,79,51.478399,163,79,51.408507
153,79,51.495009,164,79,51.425016
151,79,51.511647,166,79,51.441723
150,79,51.528441,166,79,51.458327
148,79,51.545037,166,79,51.475055
146,79,51.561684,166,79,51.491762
144,79,51.578426,165,79,51.508348
143,79,51.595025,163,79,51.52524
141,79,51.611847,162,79,51.541739
140,79,51.628376,160,79,51.558522
138,79,51.645044,158,79,51.575051
137,79,51.661778,157,79,51.591728
136,79,51.678348,155,79,51.608638
136,79,51.695048,154,79,51.625057
135,79,51.711799,154,79,51.641771
134,79,51.72833,153,79,51.658435
133,79,51.744998,152,79,51.675021
133,79,51.761776,152,79,51.691703
132,79,51.77836,151,79,51.708358
132,79,51.795045,151,79,51.725008
132,79,51.811829,150,79,51.7417
133,79,51.828323,150,79,51.758747
135,79,51.845014,152,79,51.775039
139,79,51.861822,155,79,51.791729
145,79,51.878336,161,79,51.808545
152,79,51.89499,169,79,51.825037
160,79,51.911812,179,79,51.842014
168,79,51.928346,190,79,51.858414
174,79,51.945017,200,79,51.875044
179,79,51.961822,208,79,51.891711
183,79,51.978394,213,79,51.90845
184,79,51.995037,214,79,51.925118
183,79,52.01182,212,79,51.941962
181,79,52.028375,208,79,51.958359
178,79,52.045029,202,79,51.975025
174,79,52.06175,195,79,51.992114
170,79,52.078336,188,79,52.008326
168,79,52.094989,181,79,52.025055
165,79,52.111934,175,79,52.041764
163,79,52.128358,170,79,52.058669
162,79,52.144992,167,79,52.075033
161,79,52.161741,165,79,52.091965
160,79,52.17836,165,79,52.10845
159,79,52.195024,165,79,52.125131
159,79,52.211725,166,79,52.142011
158,79,52.228381,167,79,52.15841
157,79,52.245058,168,79,52.175014
156,79,52.26178,168,79,52.191727
155,79,52.278357,168,79,52.20853
154,79,52.294998,168,79,52.224991
153,79,52.311977,167,79,52.241761
152,79,52.328364,166,79,52.258346
150,79,52.344998,165,79,52.275051
149,79,52.361966,163,79,52.291996
148,79,52.378405,161,79,52.308414
147,79,52.394999,160,79,52.325079
146,79,52.411813,158,79,52.341882
146,79,52.428377,157,79,52.35853
145,79,52.445012,156,79,52.37509
145,79,52.46196,154,79,52.391755
145,79,52.478402,154,79,52.408358
145,79,52.49501,153,79,52.42509
144,79,52.511876,152,79,52.441934
145,79,52.528338,152,79,52.458441
145,79,52.545027,151,79,52.475028
147,79,52.562246,150,79,52.49242
149,79,52.578391,151,79,52.508359
153,79,52.59506,153,79,52.525118
160,79,52.611841,159,79,52.541942
169,79,52.628361,166,79,52.558666
180,79,52.644999,175,79,52.5751
192,79,52.661771,186,79,52.591961
203,79,52.678363,197,79,52.60831
211,79,52.694996,205,79,52.625024
217,79,52.711982,210,79,52.641892
219,79,52.728373,213,79,52.658291
219,79,52.744988,212,79,52.675018
217,79,52.761859,208,79,52.691698
214,79,52.778343,202,80,52.708362
211,79,52.794966,195,80,52.725027
207,79,52.811868,188,80,52.741796
203,79,52.828356,181,80,52.758358
200,79,52.84498,175,80,52.775007
198,79,52.861949,169,80,52.791859
196,79,52.878378,166,80,52.808368
194,79,52.895035,164,80,52.824998
192,79,52.911924,162,80,52.841878
190,79,52.928354,162,80,52.858422
187,79,52.944985,163,80,52.87505
184,79,52.961797,164,80,52.891912
182,79,52.978371,165,80,52.908329
179,79,52.995045,166,80,52.925109
176,79,53.011807,167,80,52.941977
173,79,53.028373,166,80,52.958317
170,79,53.04504,165,80,52.975018
168,79,53.061758,164,80,52.991965
165,79,53.078399,162,80,53.008578
163,79,53.095037,160,80,53.02502
160,79,53.11176,157,80,53.041704
158,79,53.128373,155,80,53.058329
157,79,53.145205,153,80,53.074977
155,79,53.161715,152,80,53.092228
154,79,53.17946,150,80,53.108326
153,79,53.19502,150,80,53.125103
151,79,53.211872,149,80,53.141958
150,79,53.228366,148,80,53.158349
149,79,53.245085,147,80,53.175062
148,79,53.262006,146,80,53.191861
147,79,53.278423,146,80,53.208568
147,79,53.294994,145,80,53.225043
148,79,53.31169,146,80,53.241879
152,79,53.328388,147,80,53.258382
158,79,53.344991,152,80,53.275062
168,79,53.361678,159,80,53.29185
179,79,53.378372,168,80,53.308367
193,79,53.394985,179,80,53.325015
205,79,53.411701,190,80,53.341665
216,79,53.428379,201,80,53.358419
223,79,53.445016,208,80,53.375067
226,79,53.461686,213,80,53.391861
227,79,53.478386,214,80,53.40843
225,79,53.494977,212,80,53.42504
222,79,53.511708,207,80,53.441832
218,80,53.528371,202,80,53.458456
214,80,53.544978,195,80,53.474965
209,80,53.561866,188,80,53.491702
205,80,53.578375,181,80,53.508276
201,80,53.594984,174,80,53.525022
198,80,53.611758,169,80,53.541877
196,80,53.628391,167,80,53.558292
194,80,53.645015,165,80,53.575108
192,80,53.661776,164,80,53.591787
190,80,53.678402,164,80,53.608279
188,80,53.695157,165,80,53.624983
186,80,53.711677,166,80,53.641628
184,80,53.728414,167,80,53.658341
181,80,53.745159,167,80,53.675212
178,80,53.761663,167,80,53.691672
175,80,53.778296,167,80,53.708394
171,80,53.79514,165,80,53.72522
168,80,53.811658,164,80,53.741753
165,80,53.828311,162,80,53.75837
161,80,53.84514,160,80,53.774953
159,80,53.861668,158,80,53.79161
156,80,53.878303,156,80,53.80838
154,80,53.895413,155,80,53.824921
152,80,53.911655,154,80,53.841681
150,80,53.928297,152,80,53.8584
149,80,53.945217,152,80,53.875166
147,80,53.961622,151,80,53.891639
146,80,53.978282,150,80,53.908342
144,80,53.99533,149,80,53.925204
143,80,54.011851,149,80,53.941643
141,80,54.028356,148,80,53.95839
140,80,54.045376,147,80,53.975156
139,80,54.061664,146,80,53.991636
140,80,54.078357,146,80,54.008346
143,80,54.09516,148,80,54.025175
149,80,54.111793,151,80,54.041623
159,80,54.128319,158,80,54.058356
170,80,54.145138,168,80,54.075602
183,80,54.161638,178,80,54.091606
196,80,54.178447,189,80,54.10828
207,80,54.195614,199,80,54.125189
215,80,54.211925,207,80,54.141595
218,80,54.22833,212,80,54.158273
219,80,54.245393,213,80,54.175231
217,80,54.261897,211,80,54.191767
214,80,54.278337,206,80,54.208398
210,79,54.295184,201,80,54.225249
206,79,54.311624,194,80,54.241601
202,79,54.328384,187,80,54.258383
198,79,54.345155,180,80,54.275203
194,79,54.361646,174,80,54.291632
192,79,54.378293,169,80,54.308331
189,79,54.395139,166,80,54.325162
188,79,54.411789,163,80,54.341601
186,79,54.428288,162,80,54.358329
185,79,54.445179,162,80,54.375194
183,79,54.461631,162,80,54.391675
181,79,54.478506,163,80,54.408563
179,79,54.495484,164,80,54.426039
176,79,54.511705,165,80,54.44171
173,79,54.528492,165,80,54.458534
169,79,54.545066,164,80,54.475297
167,79,54.56164,163,80,54.491684
164,79,54.578782,162,80,54.508509
161,79,54.594944,161,80,54.525003
158,79,54.611611,159,80,54.541652
156,79,54.628523,157,80,54.558493
153,79,54.645128,155,80,54.57495
151,79,54.661607,153,80,54.591669
149,79,54.678505,151,80,54.608445
147,79,54.694955,150,80,54.625034
145,79,54.712055,149,80,54.641926
144,79,54.728422,148,80,54.658271
142,79,54.745065,148,80,54.675058
141,79,54.762014,147,80,54.691822
140,79,54.778576,147,80,54.708276
138,79,54.794955,147,80,54.724907
137,79,54.811829,146,80,54.741829
136,79,54.828538,145,80,54.758335
135,79,54.844967,145,80,54.775001
136,79,54.861868,146,80,54.791871
140,79,54.878539,148,80,54.808316
147,79,54.894953,152,80,54.82494
158,79,54.911987,159,80,54.84185
168,79,54.928292,168,80,54.858275
180,79,54.945035,178,80,54.875013
191,79,54.961864,188,80,54.891916
199,79,54.978293,196,80,54.908336
204,79,54.995092,202,80,54.924934
206,79,55.01199,204,80,54.941817
205,79,55.028515,203,80,54.958355
203,79,55.045016,199,80,54.974988
200,79,55.061854,194,80,54.99195
195,79,55.078269,187,80,55.008224
191,79,55.094937,180,80,55.025022
186,79,55.111854,173,80,55.041812
182,79,55.128273,167,80,55.058244
179,79,55.144996,162,80,55.075003
177,79,55.161902,158,80,55.091848
175,79,55.17856,155,80,55.108269
174,79,55.194958,155,80,55.124912
173,79,55.211948,155,80,55.141963
172,79,55.228453,156,80,55.158261
170,79,55.244929,158,80,55.175027
168,79,55.261837,160,80,55.191842
166,79,55.278443,161,80,55.208251
163,79,55.294986,161,80,55.224964
160,79,55.31204,161,80,55.241802
157,79,55.328291,160,80,55.258279
154,79,55.344975,159,80,55.274948
151,79,55.361832,158,80,55.291876
148,79,55.378279,157,80,55.308233
146,79,55.394952,155,80,55.324977
144,79,55.411859,153,80,55.34185
142,79,55.428586,152,80,55.358301
141,79,55.444937,151,80,55.374957
139,79,55.462004,150,80,55.391858
138,79,55.47847,149,80,55.408371
137,79,55.494941,149,80,55.424965
136,79,55.512004,148,80,55.441874
135,79,55.528471,148,80,55.458216
134,79,55.545079,148,80,55.474919
134,79,55.561802,148,80,55.491814
133,79,55.578289,147,80,55.508223
133,79,55.595034,147,80,55.524935
133,79,55.612508,147,80,55.541857
135,79,55.628628,148,80,55.558236
138,79,55.64505,151,80,55.574901
145,79,55.662967,156,80,55.591778
154,79,55.678436,163,80,55.608211
165,79,55.694998,172,80,55.624926
176,79,55.711916,182,80,55.641799
186,79,55.728503,191,80,55.658256
195,79,55.744916,199,80,55.674916
200,79,55.761856,203,80,55.691806
202,79,55.778258,204,80,55.708317
201,79,55.794924,202,80,55.724921
198,79,55.812258,198,80,55.741817
194,79,55.828494,192,80,55.75823
190,79,55.844972,185,80,55.774924
185,79,55.861707,178,80,55.792106
180,79,55.878449,172,80,55.808222
176,79,55.894988,167,80,55.824889
173,79,55.911997,162,80,55.841798
170,79,55.92852,159,80,55.858311
168,79,55.944975,157,80,55.87493
168,79,55.961947,156,80,55.891921
166,79,55.978436,156,80,55.908407
165,79,55.994969,158,80,55.925296
164,79,56.012419,159,80,55.941798
162,79,56.028459,161,80,55.9582
160,79,56.044929,162,80,55.97493
158,79,56.061708,162,80,55.991818
156,79,56.078387,162,80,56.017361
155,79,56.100655,161,80,56.024928
153,79,56.118577,159,80,56.048566
151,79,56.131962,158,80,56.058241
150,79,56.144978,156,80,56.074884
148,79,56.165767,155,80,56.091598
147,79,56.182579,153,80,56.108503
147,79,56.199127,152,80,56.124866
146,79,56.215807,151,80,56.141583
145,79,56.232763,150,80,56.158461
145,79,56.249059,149,80,56.174867
145,79,56.265746,148,80,56.196051
144,79,56.297215,148,80,56.215889
144,79,56.299132,148,80,56.230837
143,79,56.320691,147,80,56.245609
143,79,56.332478,148,80,56.258225
143,79,56.353282,147,80,56.281673
144,79,56.365758,147,80,56.291522
147,79,56.382696,148,80,56.308245
153,79,56.399403,150,80,56.325047
163,79,56.415779,155,80,56.341598
174,79,56.432496,162,80,56.3582
186,79,56.449381,170,80,56.375017
198,79,56.465754,179,80,56.391575
208,79,56.482508,188,80,56.408397
214,79,56.499329,195,80,56.425123
217,79,56.515798,199,80,56.441558
217,79,56.532449,201,80,56.458239
214,79,56.549184,199,80,56.475088
211,79,56.565746,196,80,56.491604
207,80,56.582509,191,80,56.508186
203,80,56.599328,185,80,56.525095
199,80,56.615774,178,80,56.54154
195,80,56.63287,171,80,56.558461
193,80,56.649074,166,80,56.574876
191,80,56.665776,162,80,56.591528
189,80,56.682592,158,80,56.608395
188,80,56.699075,156,80,56.624894
187,80,56.716006,156,80,56.64167
185,80,56.73246,156,80,56.658226
183,80,56.749349,157,80,56.675039
182,80,56.76575,158,80,56.69155
180,80,56.78248,159,80,56.70821
178,80,56.799329,160,80,56.72499
176,80,56.815768,160,80,56.741576
173,80,56.832451,160,80,56.758195
171,80,56.849396,160,80,56.774993
168,80,56.865783,158,80,56.791529
166,80,56.882457,157,80,56.808221
164,80,56.899511,155,80,56.824992
162,80,56.915737,154,80,56.841522
160,80,56.932457,152,80,56.858165
159,80,56.949298,150,80,56.874982
157,80,56.965774,149,80,56.891524
156,80,56.982496,148,80,56.908311
154,80,56.999391,148,80,56.924994
153,80,57.015733,147,80,56.941532
151,80,57.032472,146,80,56.95819
150,80,57.049302,146,80,56.975124
149,80,57.065762,146,80,56.991546
148,80,57.082884,145,80,57.008332
148,80,57.099078,144,80,57.024898
150,80,57.11573,144,80,57.041537
154,80,57.132768,145,80,57.058386
161,80,57.149138,147,80,57.074888
171,80,57.165729,151,80,57.091545
184,80,57.183051,158,80,57.10837
196,80,57.199126,167,80,57.124848
208,80,57.215746,176,80,57.141531
217,80,57.23294,185,80,57.158463
222,80,57.249052,193,80,57.174869
224,80,57.265724,198,80,57.191523
224,80,57.282645,200,80,57.208359
222,80,57.299078,199,80,57.22489
219,80,57.316145,195,80,57.241695
215,80,57.332616,190,80,57.258263
210,80,57.349129,184,80,57.274844
206,80,57.365962,177,80,57.291668
202,80,57.382471,171,80,57.308199
198,80,57.399028,165,80,57.324834
196,80,57.416193,160,80,57.341519
194,80,57.432414,156,80,57.358252
193,80,57.449073,154,80,57.374849
192,80,57.466184,154,80,57.391509
191,80,57.482459,154,80,57.408207
189,80,57.499098,155,80,57.424875
187,80,57.516265,157,80,57.44152
184,80,57.532414,159,80,57.458192
181,80,57.549439,160,80,57.474847
178,80,57.565718,160,80,57.491568
175,80,57.582483,160,80,57.508164
172,80,57.599567,160,80,57.524847
169,80,57.615791,160,80,57.541517
167,80,57.632485,158,80,57.558167
164,80,57.64962,157,80,57.574842
162,80,57.665726,155,80,57.59154
160,80,57.68238,153,80,57.608184
158,80,57.699594,152,80,57.624854
156,80,57.715722,151,80,57.641525
155,80,57.732416,149,80,57.658146
154,80,57.749336,148,80,57.674878
153,80,57.765741,148,80,57.691551
152,80,57.782434,148,80,57.708163
150,80,57.799461,147,80,57.724824
149,80,57.815732,146,80,57.741545
148,80,57.832375,146,80,57.758157
148,80,57.849455,146,80,57.774842
149,80,57.865749,145,80,57.79154
153,80,57.882367,145,80,57.808152
160,80,57.899365,146,80,57.82485
170,80,57.915735,150,80,57.841575
182,80,57.932384,156,80,57.858133
194,80,57.949316,165,80,57.874839
204,80,57.96569,173,80,57.891573
212,80,57.982394,183,80,57.908201
216,80,57.999575,192,80,57.924849
217,80,58.015744,197,80,57.941502
217,80,58.03238,199,80,57.958144
214,80,58.049501,199,80,57.974881
211,80,58.065747,196,80,57.991512
207,80,58.082392,191,80,58.008155
203,80,58.0995,185,80,58.024855
199,80,58.115698,179,80,58.041542
195,80,58.132386,173,80,58.058161
191,80,58.149643,168,80,58.074859
188,80,58.165741,164,80,58.091495
187,80,58.18239,160,80,58.108302
186,80,58.199369,157,80,58.124861
185,80,58.215737,156,80,58.141523
184,80,58.232437,156,80,58.158146
183,80,58.249229,157,80,58.174898
181,80,58.265723,158,80,58.191474
179,80,58.28239,159,80,58.208128
176,80,58.299666,160,80,58.224928
173,80,58.315725,161,80,58.24153
169,80,58.332377,161,80,58.258129
167,80,58.349498,161,80,58.274875
164,80,58.365744,160,80,58.291519
161,80,58.382409,159,80,58.308154
158,80,58.399316,158,80,58.324834
155,80,58.415731,156,80,58.341571
152,80,58.432402,155,80,58.358113
150,80,58.449285,154,80,58.374907
148,80,58.46571,153,80,58.391582
146,80,58.482409,152,80,58.408133
144,80,58.499631,151,80,58.424847
142,80,58.515732,150,80,58.441534
140,80,58.532367,150,80,58.458129
138,80,58.549229,149,80,58.474847
136,80,58.565732,149,80,58.491533
135,80,58.582364,149,80,58.508136
133,80,58.599579,148,80,58.524891
132,80,58.615681,147,80,58.541561
132,80,58.632375,147,80,58.558134
134,80,58.649485,147,80,58.574865
139,80,58.665726,148,80,58.591545
147,80,58.682378,152,80,58.608127
157,80,58.699247,158,80,58.624873
168,80,58.715726,166,80,58.641465
179,80,58.732349,174,80,58.658133
189,80,58.749571,184,80,58.674874
195,80,58.765727,192,80,58.691519
198,80,58.782363,198,80,58.708136
198,80,58.802752,201,80,58.725171
196,80,58.815825,200,80,58.741587
193,80,58.832426,197,80,58.758157
189,80,58.849791,193,80,58.774857
184,80,58.865731,187,80,58.791575
180,80,58.882525,181,80,58.808142
175,80,58.899158,174,80,58.824859
172,80,58.917442,168,80,58.841472
169,80,58.932387,164,80,58.85814
168,80,58.949318,160,80,58.87488
166,80,58.965712,157,80,58.891465
165,80,58.982408,156,80,58.90814
164,80,58.999254,156,80,58.92489
163,80,59.015771,158,80,58.941482
161,80,59.032418,159,80,58.958154
160,80,59.04961,161,80,58.974877
158,80,59.065709,162,80,58.991513
156,80,59.082376,164,80,59.008139
153,80,59.099372,164,80,59.024984
151,80,59.115732,164,80,59.04154
148,80,59.13236,164,80,59.058088
145,80,59.149784,163,80,59.075241
143,80,59.165748,162,80,59.091753
141,80,59.182423,160,80,59.108125
139,80,59.199536,159,80,59.124992
137,80,59.215714,158,80,59.141519
136,80,59.232381,157,80,59.158111
135,80,59.249556,156,80,59.174949
134,80,59.265746,155,80,59.191488
133,80,59.282356,155,80,59.208124
132,80,59.299398,154,80,59.224894
132,80,59.315692,154,80,59.241499
131,80,59.332375,153,80,59.258144
131,80,59.349378,153,80,59.274882
131,80,59.36569,152,80,59.291526
131,80,59.382375,152,80,59.308113
133,80,59.399675,152,80,59.324987
137,80,59.415698,153,80,59.341667
144,80,59.43265,157,80,59.358184
154,80,59.449054,164,80,59.374878
164,80,59.465716,171,80,59.39147
174,80,59.482796,181,80,59.408229
183,80,59.499093,190,80,59.424874
190,80,59.515736,199,80,59.441462
193,80,59.532599,204,80,59.458123
194,80,59.549024,206,80,59.474789
193,80,59.56567,206,80,59.491464
190,80,59.582845,203,80,59.508155
186,80,59.59908,198,79,59.524903
181,80,59.615699,192,79,59.54147
177,80,59.632742,186,79,59.55814
173,80,59.649048,180,79,59.574811
169,80,59.665686,174,79,59.591431
167,80,59.682811,169,79,59.608169
165,80,59.699013,166,79,59.624788
163,80,59.715689,164,79,59.64143
161,80,59.732721,163,79,59.658131
160,80,59.749013,163,79,59.674798
159,80,59.76576,164,79,59.691426
158,80,59.78267,165,79,59.708119
157,80,59.799016,167,79,59.724796
